"leadI","leadII","leadIII","leadaVR","leadaVL","leadaVF","leadV1","leadV2","leadV3","leadV4","leadV5","leadV6"
0,0,0,0,0,0,0,0,2,0,2,-1
1,0,-1,-1,1,-1,-2,1,6,1,4,-2
3,1,-2,-2,2,-1,-3,1,8,1,6,-3
5,1,-3,-3,3,-1,-3,1,9,1,7,-3
5,1,-3,-3,4,-1,-4,1,9,1,8,-3
4,0,-2,-2,3,-1,-4,1,10,1,8,-3
3,0,-2,-2,3,-1,-3,2,11,2,9,-2
3,0,-3,-2,3,-1,-3,3,11,2,9,-2
3,0,-3,-1,3,-1,-2,3,12,2,9,-2
2,0,-3,-1,3,-1,-2,3,12,2,9,-2
2,0,-2,0,2,-1,-2,3,12,2,9,-2
1,0,-2,0,1,-1,-2,3,11,2,9,-3
1,-1,-2,0,1,-2,-2,3,11,1,8,-3
0,-1,-2,0,1,-2,-2,3,10,1,8,-4
0,-2,-2,0,1,-2,-2,3,10,0,7,-4
0,-2,-1,1,1,-2,-2,3,10,0,7,-4
-1,-1,-1,1,0,-1,-2,3,10,1,8,-4
-1,-1,0,1,0,-1,-2,4,10,2,8,-3
-1,-1,0,1,-1,0,-2,5,11,2,9,-3
-2,-1,1,1,-1,0,-2,5,11,2,9,-2
-1,-1,0,1,0,-1,-2,4,10,2,8,-2
-1,-2,0,1,0,-1,-2,4,9,1,8,-2
-2,-2,0,1,-1,-1,-2,4,9,1,8,-2
-2,-2,0,2,-1,-1,-2,4,9,1,8,-2
-4,-2,1,3,-3,0,-2,5,10,2,8,-2
-5,-3,2,4,-4,0,-1,6,11,2,8,-1
-4,-3,1,3,-3,-1,-1,5,10,2,8,-1
-1,-3,-1,2,0,-2,-1,5,9,1,7,-1
1,-2,-3,1,2,-3,-2,4,9,1,6,-2
1,-2,-3,1,2,-3,-2,4,9,0,6,-2
0,-2,-3,1,1,-3,-2,5,9,1,6,-1
0,-2,-3,1,1,-3,-2,5,9,1,6,-1
0,-3,-3,1,1,-3,-1,5,9,1,6,-2
0,-4,-5,1,2,-4,-1,5,9,0,5,-3
1,-5,-7,1,4,-6,-1,6,10,0,4,-5
1,-6,-8,2,4,-7,0,9,13,0,4,-6
0,-7,-8,3,4,-7,2,14,17,2,3,-7
0,-7,-8,4,4,-8,3,18,21,5,3,-9
0,-7,-8,4,4,-8,4,21,25,8,3,-9
0,-7,-8,4,4,-7,5,23,29,13,4,-9
0,-7,-7,3,4,-7,5,24,33,19,8,-8
1,-6,-7,2,4,-6,5,26,39,26,13,-6
2,-4,-6,1,4,-5,4,28,46,36,20,-2
3,-2,-4,0,4,-3,3,29,53,48,30,3
4,2,-2,-3,3,0,0,27,57,61,43,12
6,7,1,-7,3,5,-3,20,56,73,57,23
8,13,4,-11,2,9,-8,11,51,83,72,35
11,17,5,-14,3,12,-12,1,41,91,89,48
13,21,6,-17,3,14,-16,-9,28,96,106,63
14,23,9,-19,2,16,-21,-20,11,98,123,78
14,25,12,-20,1,19,-25,-32,-9,96,140,95
18,29,11,-24,3,20,-32,-47,-31,93,159,113
25,34,9,-30,9,21,-41,-63,-54,89,180,134
33,41,7,-37,14,24,-51,-80,-75,86,204,157
42,50,8,-46,18,29,-62,-97,-94,85,229,182
50,60,9,-55,21,35,-72,-115,-112,82,252,206
57,69,10,-63,24,40,-82,-133,-129,78,272,226
61,75,13,-68,24,44,-91,-150,-146,70,285,240
61,77,15,-69,22,46,-96,-164,-162,55,285,246
59,76,17,-68,21,47,-97,-174,-177,32,270,240
57,74,17,-65,20,45,-97,-182,-194,1,241,224
53,71,17,-62,19,44,-95,-191,-213,-35,200,201
46,66,19,-56,14,43,-92,-199,-232,-78,148,170
37,58,20,-47,9,39,-88,-207,-251,-124,86,132
27,46,18,-36,4,33,-85,-214,-267,-168,24,90
18,32,14,-25,1,24,-80,-216,-278,-204,-32,50
9,16,7,-12,0,12,-73,-211,-279,-229,-79,11
1,-2,-2,0,2,-2,-62,-199,-271,-241,-114,-22
-3,-16,-11,10,4,-14,-51,-182,-257,-241,-134,-45
-7,-27,-18,17,5,-22,-42,-165,-239,-233,-142,-61
-10,-34,-23,22,6,-28,-34,-150,-222,-222,-145,-71
-14,-38,-24,26,5,-30,-28,-135,-203,-208,-144,-79
-16,-39,-24,28,3,-31,-24,-121,-184,-192,-139,-83
-18,-40,-23,29,2,-31,-21,-108,-164,-174,-130,-83
-18,-39,-21,28,1,-30,-17,-95,-144,-155,-119,-81
-19,-36,-16,28,-1,-26,-14,-82,-123,-135,-106,-76
-21,-32,-10,27,-5,-21,-9,-70,-103,-114,-91,-69
-21,-27,-4,25,-8,-15,-5,-57,-84,-94,-77,-61
-21,-21,1,22,-11,-9,-2,-46,-68,-78,-65,-53
-21,-15,5,19,-13,-4,0,-37,-54,-64,-55,-46
-20,-11,8,16,-14,-1,1,-28,-41,-52,-46,-39
-19,-7,10,13,-14,1,2,-21,-30,-41,-38,-34
-17,-4,11,11,-14,3,4,-15,-20,-31,-31,-29
-15,-2,12,8,-13,4,3,-10,-13,-23,-25,-25
-13,0,13,7,-13,6,2,-6,-7,-16,-19,-21
-11,3,15,4,-13,9,3,-2,-1,-10,-13,-17
-9,7,16,1,-12,11,3,1,4,-4,-8,-12
-9,9,18,0,-13,14,3,4,8,1,-4,-9
-11,10,20,0,-15,15,2,6,12,4,-1,-6
-12,9,20,1,-15,15,1,7,13,5,0,-6
-11,9,19,0,-14,14,0,7,14,6,0,-6
-9,9,18,-1,-12,14,-1,7,15,7,0,-6
-4,10,15,-3,-9,13,-3,6,14,7,0,-7
-2,10,14,-5,-7,12,-4,5,14,7,0,-6
-1,11,14,-5,-7,13,-4,6,15,8,1,-5
-1,11,13,-5,-7,13,-5,6,16,9,1,-5
0,11,11,-6,-5,12,-6,6,16,8,1,-5
1,11,9,-6,-3,11,-6,6,16,8,1,-5
1,11,8,-6,-3,10,-6,6,17,8,1,-6
1,10,8,-6,-4,9,-5,7,17,8,0,-6
1,10,9,-5,-4,9,-4,7,18,9,0,-7
1,10,9,-5,-5,9,-3,7,18,9,0,-7
1,9,10,-5,-5,9,-3,8,19,10,1,-6
0,9,10,-5,-5,9,-3,9,19,11,2,-6
0,8,9,-4,-5,9,-3,10,20,11,2,-5
-1,8,9,-4,-5,9,-3,11,21,12,3,-5
-1,8,9,-3,-5,9,-3,12,22,12,3,-4
-1,7,9,-3,-5,9,-2,12,23,13,3,-4
-2,7,9,-2,-5,8,-2,12,23,12,3,-4
-2,6,9,-2,-5,8,-2,12,23,12,3,-4
-2,6,9,-1,-5,8,-2,13,23,13,4,-4
-2,6,10,-1,-6,8,-3,13,23,13,4,-3
-4,6,10,-1,-7,8,-3,14,24,14,5,-3
-4,6,10,-1,-7,8,-3,15,25,14,5,-2
-3,5,8,-1,-5,7,-3,15,25,14,5,-2
-1,5,6,-2,-3,5,-3,15,25,14,4,-3
0,5,5,-2,-3,5,-2,16,26,15,5,-3
-1,5,5,-1,-4,5,-1,16,27,16,6,-2
-2,4,6,-1,-4,5,0,17,27,17,6,-2
0,4,4,-1,-3,4,-1,16,27,17,6,-2
2,3,1,-2,0,2,-1,16,26,16,5,-4
4,3,0,-3,2,1,-2,15,25,15,4,-5
4,2,-1,-3,2,1,-2,16,26,14,4,-5
4,2,-1,-3,2,0,-2,16,26,14,4,-5
3,1,-2,-2,2,0,-1,17,26,14,4,-5
2,0,-1,-1,1,0,-1,17,27,15,4,-5
1,0,-1,0,0,-1,-1,17,27,15,4,-5
0,-1,-1,0,0,-1,-1,17,28,15,3,-5
0,-1,-1,0,0,-1,0,17,28,15,3,-5
0,0,0,0,0,0,0,18,28,15,3,-5
0,0,0,0,0,0,0,18,29,15,3,-5
0,0,-1,0,0,0,0,19,29,15,3,-5
0,0,-1,0,0,0,0,19,29,15,3,-5
0,0,0,0,0,0,0,20,30,16,3,-5
0,0,0,0,0,0,0,20,30,16,3,-5
0,0,0,0,0,0,1,20,31,17,3,-5
0,-1,0,0,0,0,1,21,31,17,3,-6
-1,-1,0,1,-1,0,2,22,32,17,4,-6
-1,-1,0,1,-1,0,2,23,33,18,4,-6
-1,-1,0,0,0,0,3,24,34,19,4,-6
0,0,-1,0,0,0,3,24,35,19,3,-6
1,-1,-2,0,1,-1,3,25,35,19,3,-6
0,-2,-1,1,0,-1,4,25,36,20,4,-6
-4,-2,1,3,-3,0,5,27,37,20,5,-5
-8,-2,5,5,-7,1,7,29,39,21,6,-4
-8,-2,6,5,-7,1,7,30,40,22,6,-3
-6,-2,3,4,-5,0,6,30,40,22,5,-4
-3,-2,0,2,-1,-1,5,30,40,22,4,-5
-1,-2,-2,2,0,-2,4,30,41,22,4,-6
0,-2,-2,1,0,-1,4,30,42,22,3,-7
1,-1,-3,0,1,-1,4,31,42,23,3,-7
3,-1,-4,0,3,-2,4,31,42,23,2,-8
4,-1,-5,-1,4,-3,4,31,43,23,2,-9
4,-1,-5,-1,4,-3,4,33,45,24,2,-9
3,0,-4,-1,3,-3,4,35,46,24,3,-9
3,0,-3,-1,3,-2,4,37,48,25,3,-8
2,0,-3,0,2,-2,5,38,50,27,4,-8
1,-1,-2,0,2,-2,5,40,52,28,5,-7
1,-1,-2,0,1,-2,5,41,53,29,5,-6
1,-1,-2,1,1,-2,6,41,54,30,6,-6
1,-1,-2,1,1,-2,6,42,55,30,5,-7
1,-1,-2,0,1,-2,6,43,57,31,5,-8
1,0,-2,0,1,-2,6,45,58,31,6,-8
1,0,-1,0,1,-1,7,47,60,33,6,-8
1,1,0,0,0,0,8,48,62,34,6,-8
0,1,1,0,0,0,9,50,63,35,6,-8
0,2,2,-1,-1,1,10,51,66,36,7,-8
0,3,3,-1,-1,2,10,53,68,38,7,-8
0,3,3,-1,-2,3,10,54,70,39,8,-8
-1,3,4,0,-2,3,11,55,71,39,8,-8
-2,3,4,0,-3,3,12,56,72,40,8,-8
-3,2,5,1,-4,3,12,58,73,41,8,-8
-4,1,5,2,-5,3,13,59,75,41,8,-8
-4,1,4,2,-4,2,13,60,75,41,7,-9
-3,0,2,1,-3,1,13,60,75,41,6,-9
0,0,0,0,0,0,13,59,75,40,5,-10
4,0,-4,-2,4,-2,12,58,74,39,4,-11
6,0,-6,-2,6,-3,12,58,74,38,3,-12
5,0,-5,-2,5,-2,12,59,75,38,3,-12
4,0,-4,-2,4,-2,12,60,75,39,3,-12
4,0,-4,-2,4,-2,12,60,75,39,2,-13
5,0,-5,-2,5,-2,11,60,75,38,1,-14
5,0,-5,-2,5,-2,11,60,75,38,1,-15
4,0,-4,-1,4,-2,11,60,75,38,1,-15
3,0,-3,0,3,-1,11,60,75,37,1,-15
2,0,-2,0,2,-1,11,59,75,37,0,-15
3,0,-2,-1,3,-1,11,59,75,37,0,-15
3,1,-2,-2,3,-1,11,59,74,37,0,-15
3,1,-2,-2,3,-1,11,59,74,37,0,-15
2,1,-2,-1,2,0,11,59,74,37,0,-15
1,1,-1,-1,1,0,11,58,73,37,0,-15
1,1,-1,-1,1,0,10,57,72,37,0,-15
1,1,-1,-1,1,0,10,57,71,37,0,-15
2,1,-1,-1,1,0,10,56,70,36,0,-15
2,1,-1,-1,2,0,10,54,68,35,-1,-14
2,1,-1,-1,2,0,10,52,67,35,-1,-14
2,0,-1,-1,2,0,9,50,64,34,0,-13
1,0,-1,-1,2,-1,9,47,62,33,0,-13
1,0,-1,0,2,-1,9,44,60,33,0,-13
2,0,-1,0,2,-1,8,43,57,32,1,-12
2,1,-1,0,2,0,8,41,55,32,1,-11
2,1,-1,-1,2,0,8,39,52,30,1,-10
1,2,0,-1,1,1,8,37,50,29,2,-9
1,2,1,-1,0,2,8,34,47,28,2,-8
2,2,1,-1,0,2,8,31,44,27,3,-7
2,3,1,-2,1,2,8,29,41,26,3,-6
3,3,1,-2,1,2,8,26,39,24,4,-5
3,4,1,-3,1,2,8,24,36,23,4,-4
2,4,2,-2,0,3,8,23,34,22,5,-3
-1,3,4,0,-2,3,10,23,33,21,6,-1
-5,3,7,2,-6,4,11,22,31,21,7,0
-7,2,9,3,-7,5,12,20,29,20,7,0
-6,2,8,3,-7,4,12,18,26,18,7,1
-5,2,7,2,-6,4,13,16,24,17,7,1
-5,2,7,2,-6,5,13,14,23,16,8,2
-2,3,6,0,-4,4,13,12,20,14,7,2
1,4,3,-3,0,4,12,10,18,12,6,1
5,6,1,-5,2,3,12,9,16,11,6,1
6,7,0,-6,3,3,12,7,15,10,5,1
5,7,1,-6,2,3,13,6,13,9,4,1
4,7,2,-5,1,3,13,6,12,8,4,1
3,6,3,-4,0,4,14,5,11,8,4,1
2,6,4,-4,-1,4,14,5,10,8,4,1
1,6,5,-3,-2,5,14,4,9,7,3,1
0,6,5,-3,-3,5,14,4,8,7,3,1
0,6,6,-2,-4,6,14,3,8,6,3,1
0,6,7,-2,-4,6,14,3,7,6,3,1
-1,6,8,-2,-5,7,12,1,6,5,2,1
-2,6,9,-2,-6,7,10,0,5,5,2,1
-3,7,10,-2,-6,8,9,-1,4,4,2,1
-3,7,10,-2,-7,8,7,-2,3,4,2,1
-3,7,11,-2,-7,9,7,-2,3,4,1,0
-4,7,11,-1,-7,9,6,-3,2,3,1,0
-5,7,12,-1,-8,10,6,-3,2,3,0,0
-7,7,14,0,-10,11,6,-3,2,3,1,0
-9,7,16,0,-12,12,6,-2,3,4,2,1
-9,7,17,1,-13,12,6,-2,3,4,2,2
-9,7,17,1,-12,12,4,-3,2,4,1,2
-7,8,15,0,-11,12,2,-4,1,2,1,1
-5,8,13,-1,-9,11,0,-5,0,1,0,0
-2,8,10,-2,-6,9,-1,-7,-1,0,-2,-1
0,7,8,-3,-4,8,-2,-8,-3,-2,-3,-2
-1,7,8,-3,-4,7,-2,-8,-4,-3,-4,-3
-2,7,9,-2,-5,7,-2,-8,-4,-3,-5,-4
-2,7,9,-2,-5,7,-2,-8,-4,-3,-5,-4
-1,7,8,-3,-4,6,-2,-8,-4,-3,-5,-4
0,6,7,-3,-4,6,-2,-8,-4,-3,-5,-4
-1,6,7,-2,-4,6,-2,-8,-4,-3,-5,-3
-3,5,8,-1,-5,7,-1,-7,-3,-3,-4,-3
-4,5,9,0,-6,7,0,-6,-1,-2,-3,-2
-3,5,8,0,-5,7,0,-5,-1,-1,-3,-1
-2,6,7,-1,-4,6,0,-5,-1,-1,-3,-1
-2,6,7,-1,-4,6,0,-5,-1,-1,-3,-1
-4,5,8,0,-5,6,1,-5,0,-1,-3,-1
-7,4,11,2,-9,8,2,-3,0,0,-2,0
-10,4,13,3,-12,9,3,-2,1,1,-1,0
-10,3,13,3,-11,8,3,-2,1,0,-1,0
-6,3,9,2,-8,6,3,-3,0,0,-2,-2
-3,3,5,1,-4,4,2,-4,0,-1,-3,-3
0,2,1,0,-1,2,1,-4,-1,-2,-4,-4
1,1,-1,-1,1,0,1,-5,-1,-2,-5,-4
2,0,-2,-1,2,0,0,-4,0,-2,-5,-4
2,0,-2,-1,2,-1,0,-4,0,-2,-5,-4
2,0,-3,0,2,-1,0,-4,0,-3,-5,-4
1,-1,-3,0,1,-2,0,-3,0,-3,-5,-4
0,-1,-2,1,0,-2,1,-2,0,-2,-5,-3
-1,-2,-2,2,0,-2,2,0,1,-2,-4,-2
-1,-2,-2,2,0,-2,2,0,2,-1,-3,-2
-1,-3,-3,3,0,-3,3,1,2,-1,-3,-2
-1,-3,-3,3,0,-3,3,1,2,-1,-3,-2
-2,-4,-2,3,0,-3,3,0,2,-1,-3,-2
-3,-4,-1,4,-1,-3,3,0,2,-1,-3,-2
-4,-5,0,4,-2,-2,4,0,2,-1,-3,-3
-5,-5,0,4,-2,-2,4,1,2,-1,-4,-3
-5,-5,0,5,-3,-2,5,1,2,-2,-4,-3
-6,-4,1,5,-3,-1,6,2,2,-1,-4,-3
-5,-3,1,4,-3,0,6,3,3,-1,-4,-3
-3,-3,0,3,-2,-1,7,3,3,-1,-3,-2
-3,-4,-1,4,-1,-2,7,3,3,-1,-3,-3
-3,-4,-1,4,-1,-2,7,3,3,-1,-3,-3
-3,-5,-1,4,-1,-3,7,3,3,-1,-3,-2
-2,-5,-2,4,0,-3,7,3,2,-1,-4,-3
-1,-5,-3,4,1,-4,7,2,2,-2,-4,-3
-1,-5,-4,3,1,-4,7,2,2,-1,-4,-3
0,-5,-4,3,2,-4,7,2,2,-1,-4,-4
0,-5,-4,3,2,-4,6,2,2,-2,-5,-5
0,-4,-4,3,2,-4,6,2,1,-2,-6,-5
0,-4,-4,2,2,-4,6,2,1,-2,-6,-5
0,-3,-4,1,2,-4,6,2,1,-2,-5,-4
0,-4,-4,2,2,-4,6,2,1,-2,-5,-4
-1,-5,-4,3,1,-5,6,2,1,-1,-4,-4
-1,-6,-4,4,1,-5,6,2,2,-1,-4,-3
-2,-6,-4,5,1,-6,6,3,2,-1,-4,-3
-3,-7,-4,5,1,-6,7,3,2,0,-3,-2
-4,-8,-4,6,1,-6,7,4,2,0,-3,-2
-4,-8,-4,6,0,-6,8,4,2,0,-3,-2
-4,-8,-4,6,0,-6,8,4,2,0,-3,-2
-4,-8,-4,6,0,-6,8,4,2,0,-3,-2
-4,-7,-3,6,0,-5,8,4,3,0,-3,-2
-4,-7,-2,6,-1,-4,8,4,3,0,-2,-2
-5,-6,-1,6,-1,-4,8,4,3,1,-2,-2
-4,-6,-1,5,-1,-3,8,4,3,1,-2,-2
-4,-5,-1,5,-1,-3,8,4,3,0,-3,-2
-3,-5,-2,4,0,-3,8,4,2,0,-3,-3
-3,-5,-2,4,0,-3,8,4,2,0,-3,-3
-3,-5,-2,4,0,-4,8,4,2,0,-3,-3
-3,-6,-3,4,0,-4,8,4,2,-1,-3,-4
-2,-6,-4,4,1,-5,7,3,1,-1,-4,-4
-3,-7,-4,5,1,-6,7,3,1,-1,-4,-4
-4,-7,-3,6,0,-5,7,4,1,0,-3,-4
-6,-7,-1,6,-2,-4,8,4,1,0,-3,-3
-5,-7,-1,6,-1,-4,8,4,1,0,-3,-3
-3,-7,-3,5,0,-4,8,4,1,0,-3,-4
-2,-6,-4,4,1,-5,7,4,1,0,-3,-4
-2,-6,-4,4,1,-5,7,4,1,0,-3,-4
-4,-6,-2,6,-1,-4,8,4,1,0,-3,-4
-8,-7,1,8,-5,-2,9,5,2,0,-2,-3
-10,-7,3,9,-6,-2,8,5,2,0,-2,-3
-9,-7,1,8,-4,-3,7,4,1,0,-2,-3
-5,-8,-3,6,0,-5,7,3,0,-1,-4,-5
-1,-9,-7,5,3,-7,6,2,0,-2,-5,-6
1,-9,-9,4,5,-8,6,2,-1,-2,-6,-6
1,-8,-9,3,5,-8,6,2,0,-2,-5,-6
1,-8,-9,3,5,-8,7,2,0,-2,-6,-6
0,-9,-8,4,4,-8,6,2,-1,-3,-7,-7
0,-9,-8,4,4,-9,6,1,-2,-4,-8,-7
-1,-9,-8,5,4,-9,7,1,-2,-4,-8,-7
-1,-9,-8,5,4,-9,7,2,-1,-4,-7,-6
-2,-10,-7,6,3,-8,8,3,0,-3,-6,-5
-3,-11,-7,7,2,-8,8,3,0,-2,-6,-5
-4,-11,-7,8,1,-8,8,2,-1,-2,-6,-5
-4,-12,-7,9,1,-8,9,2,-1,-2,-6,-5
-4,-12,-7,9,2,-9,9,2,-1,-3,-7,-6
-4,-12,-8,8,2,-9,8,2,-1,-3,-8,-7
-4,-12,-8,8,3,-9,8,3,-1,-3,-8,-7
-4,-12,-8,8,3,-10,9,6,1,-2,-8,-8
-4,-12,-9,8,3,-10,10,10,6,0,-8,-9
-4,-13,-9,8,3,-11,12,14,10,2,-8,-10
-4,-13,-9,9,2,-11,14,18,15,6,-7,-10
-6,-13,-7,9,1,-10,16,21,20,11,-5,-10
-9,-12,-4,10,-1,-8,17,24,24,17,-1,-8
-11,-11,-1,11,-4,-6,19,26,30,25,4,-6
-11,-10,0,10,-5,-4,18,27,37,35,11,-2
-7,-7,0,7,-3,-3,16,27,43,47,20,2
0,-3,-2,2,1,-3,12,24,46,58,30,9
5,2,-3,-3,4,-1,6,16,43,68,41,17
9,8,-1,-8,5,3,2,7,36,77,53,27
11,14,2,-12,5,7,-2,-3,27,84,68,39
14,18,4,-16,5,11,-6,-13,15,90,84,53
17,22,5,-20,6,13,-11,-23,0,92,101,68
21,27,5,-24,8,16,-16,-35,-18,92,119,85
25,32,6,-29,9,19,-22,-47,-37,89,137,103
30,37,7,-34,11,22,-29,-61,-57,87,158,124
35,43,8,-39,12,26,-37,-76,-77,85,182,147
39,50,11,-44,13,30,-46,-92,-95,83,206,171
43,57,14,-50,14,35,-56,-109,-113,81,230,194
46,64,17,-55,15,40,-65,-126,-130,77,250,214
50,70,20,-60,15,45,-74,-143,-146,71,265,230
52,75,22,-63,16,49,-81,-157,-162,59,270,239
52,76,23,-64,15,50,-83,-168,-177,40,261,236
50,75,24,-62,14,50,-83,-176,-193,13,237,223
46,72,25,-59,11,49,-82,-185,-210,-21,202,204
40,68,27,-54,7,48,-80,-193,-228,-61,154,176
33,61,27,-46,2,44,-75,-200,-246,-105,96,140
24,50,25,-36,0,38,-70,-207,-262,-150,35,100
15,36,21,-25,-2,29,-67,-210,-274,-188,-21,60
6,20,14,-13,-3,17,-61,-207,-277,-216,-71,21
-2,2,4,0,-2,3,-50,-197,-272,-232,-110,-13
-7,-14,-6,10,0,-10,-41,-182,-260,-236,-135,-39
-9,-26,-16,17,3,-20,-35,-166,-245,-232,-147,-57
-12,-33,-21,23,4,-26,-27,-151,-228,-222,-151,-68
-18,-37,-19,28,0,-28,-21,-136,-210,-209,-150,-75
-26,-40,-14,33,-6,-26,-15,-120,-189,-192,-144,-79
-32,-40,-9,36,-11,-24,-12,-106,-168,-173,-135,-79
-31,-39,-7,35,-11,-23,-12,-94,-150,-155,-125,-77
-27,-37,-9,32,-8,-23,-12,-84,-132,-136,-114,-74
-22,-34,-11,27,-5,-22,-10,-74,-114,-119,-103,-70
-18,-29,-10,23,-3,-19,-10,-65,-99,-102,-91,-65
-17,-23,-6,21,-6,-14,-6,-54,-82,-86,-79,-57
-18,-18,0,19,-9,-9,-1,-44,-66,-71,-68,-49
-17,-13,3,16,-10,-5,0,-34,-53,-58,-59,-43
-15,-9,5,13,-10,-2,0,-26,-41,-46,-51,-37
-13,-6,7,10,-9,0,0,-20,-32,-37,-44,-33
-12,-4,8,8,-9,2,0,-16,-25,-29,-37,-29
-11,-2,10,6,-9,4,-1,-11,-19,-21,-30,-24
-10,0,11,4,-9,5,0,-7,-12,-14,-24,-19
-8,2,11,2,-9,7,0,-2,-6,-7,-18,-15
-6,4,11,1,-8,8,0,1,-2,-3,-14,-11
-5,5,10,0,-7,8,0,3,1,0,-12,-9
-4,5,10,0,-7,8,0,5,4,2,-11,-8
-4,5,10,0,-7,8,0,6,6,4,-10,-8
-4,5,10,0,-7,8,1,7,7,5,-9,-9
-5,6,11,0,-8,8,1,7,8,7,-8,-9
-5,6,12,0,-8,9,4,8,10,8,-7,-8
-6,7,12,0,-9,9,6,8,11,9,-7,-7
-6,7,13,0,-9,10,1,9,11,9,-6,-6
-6,7,13,0,-9,10,0,11,12,11,-5,-5
-6,6,11,0,-8,9,3,13,14,12,-5,-5
-3,6,9,-1,-6,7,3,13,14,11,-5,-6
-2,5,6,-1,-3,5,4,12,13,10,-6,-7
-1,3,4,-1,-2,3,4,12,13,10,-6,-8
-1,2,3,0,-2,2,4,12,14,10,-5,-7
-2,1,4,1,-3,2,4,13,14,11,-5,-6
-3,0,4,1,-4,2,3,14,14,11,-4,-5
-4,1,5,2,-4,3,4,15,15,12,-4,-4
-4,1,5,2,-5,3,5,16,17,14,-3,-3
-4,2,5,2,-5,3,4,17,18,15,-2,-3
-4,2,5,2,-4,3,5,18,19,15,-1,-3
-4,2,5,1,-4,3,6,18,19,16,-1,-3
-4,1,5,1,-4,3,6,18,19,15,-1,-3
-5,1,5,2,-5,3,5,19,18,15,-1,-3
-5,0,5,2,-5,2,6,19,18,15,-1,-3
-4,-1,4,2,-4,1,6,20,19,15,-1,-3
-3,-1,2,2,-3,0,7,20,20,16,-1,-3
-3,-2,1,2,-2,0,7,20,21,16,-1,-3
-3,-2,1,3,-2,0,7,20,21,16,-1,-3
-4,-2,3,3,-3,0,7,21,20,16,-2,-3
-4,-2,2,3,-3,0,8,20,19,15,-2,-3
0,-2,-1,1,1,-2,7,19,18,13,-3,-5
3,-2,-5,-1,5,-4,6,18,17,12,-4,-6
3,-2,-4,0,4,-4,6,18,17,12,-4,-6
1,-2,-3,0,3,-3,8,18,18,12,-4,-6
0,-2,-3,1,2,-3,9,18,18,12,-5,-6
0,-3,-3,1,2,-3,10,18,18,11,-5,-7
0,-4,-4,2,2,-4,8,18,18,11,-5,-7
0,-4,-3,2,1,-4,7,20,18,12,-5,-6
-2,-4,0,3,-1,-2,12,22,21,15,-3,-4
-5,-4,1,4,-3,-1,14,23,23,17,-2,-4
-5,-4,1,4,-2,-2,10,23,22,15,-3,-5
-2,-4,-2,3,0,-3,9,22,20,13,-4,-6
0,-4,-5,2,2,-4,9,22,20,12,-5,-7
1,-4,-6,2,4,-5,10,22,20,12,-6,-7
1,-4,-6,1,4,-5,11,22,21,13,-5,-7
1,-4,-5,1,4,-5,11,23,22,14,-5,-7
1,-5,-5,1,3,-5,10,23,22,14,-4,-7
0,-5,-4,2,2,-5,14,24,24,15,-4,-6
-1,-5,-3,2,1,-4,14,25,25,16,-3,-6
-1,-4,-3,2,2,-4,10,26,25,16,-3,-6
-1,-4,-3,2,1,-3,13,27,26,17,-3,-6
-2,-5,-2,3,0,-3,17,28,28,17,-3,-6
-2,-5,-2,4,0,-3,14,28,28,17,-3,-6
-1,-5,-3,3,1,-4,10,28,27,17,-3,-6
-1,-5,-3,3,2,-4,12,29,28,18,-3,-6
-1,-5,-3,3,1,-4,16,30,30,19,-2,-6
-2,-5,-2,4,1,-4,17,30,31,19,-2,-7
-2,-5,-2,4,0,-4,16,31,31,19,-2,-7
-2,-5,-2,4,0,-4,13,31,31,19,-2,-7
-3,-5,-2,4,0,-4,14,33,33,20,-2,-7
-3,-5,-1,4,0,-3,16,34,34,21,-2,-7
-4,-5,0,4,-1,-3,14,34,34,21,-2,-8
-4,-4,0,4,-2,-2,16,35,35,22,-1,-7
-4,-4,1,4,-2,-2,17,37,37,23,0,-7
-3,-3,0,3,-1,-2,17,38,38,24,0,-7
-2,-4,0,3,0,-2,18,39,40,24,0,-7
-2,-5,-1,3,0,-3,17,39,41,24,-1,-8
-2,-5,-3,3,1,-4,17,39,41,24,-1,-8
-1,-5,-4,3,2,-4,18,40,43,25,-1,-8
0,-4,-5,2,3,-4,18,41,44,26,-1,-8
2,-3,-6,0,4,-4,17,42,45,27,0,-8
3,-3,-6,0,5,-4,16,44,46,27,-1,-9
2,-3,-5,0,4,-4,16,45,47,27,-1,-9
0,-3,-2,1,2,-2,16,47,48,28,0,-9
0,-2,-1,0,1,-1,18,49,51,30,0,-9
0,-1,-1,0,1,-1,21,50,53,31,0,-9
0,-2,0,1,0,-1,22,51,55,32,0,-9
-1,-2,0,2,0,-1,21,52,57,33,0,-9
-1,-3,-1,2,0,-2,17,53,57,33,0,-9
-1,-3,-2,2,1,-2,16,55,58,33,0,-9
0,-3,-3,2,2,-2,19,56,60,34,0,-10
1,-3,-3,1,3,-3,20,56,61,34,0,-10
1,-2,-3,1,3,-3,18,57,61,34,-1,-11
2,-2,-3,0,3,-3,18,59,63,34,-1,-11
2,-2,-4,0,3,-2,19,60,64,35,-1,-11
2,-2,-4,0,3,-3,18,61,64,35,-1,-12
2,-3,-4,1,3,-3,17,61,65,35,-2,-12
2,-3,-4,1,3,-3,18,61,66,35,-2,-13
1,-3,-4,1,3,-3,19,62,67,36,-2,-13
0,-3,-4,1,2,-3,20,62,67,36,-2,-13
0,-3,-3,2,1,-3,19,62,67,36,-2,-13
-1,-3,-3,2,1,-3,19,62,68,36,-2,-13
-1,-3,-2,2,1,-3,19,63,69,36,-2,-13
-1,-3,-2,2,1,-3,18,63,69,37,-2,-13
-2,-3,-1,2,0,-2,18,64,70,37,-2,-13
-2,-2,0,2,0,-1,19,64,70,37,-2,-13
-2,-2,-1,2,0,-1,18,64,70,37,-3,-13
0,-3,-3,1,2,-2,17,63,69,36,-4,-14
2,-3,-6,0,4,-4,17,62,68,34,-6,-15
3,-3,-6,0,5,-4,15,62,67,34,-6,-16
2,-2,-5,0,4,-3,15,62,67,34,-6,-16
3,-2,-5,-1,4,-3,15,61,67,33,-7,-17
3,-2,-5,-1,4,-3,15,60,66,32,-7,-17
2,-2,-4,0,4,-2,15,59,65,32,-7,-17
2,-1,-3,0,3,-2,15,58,64,33,-7,-16
1,-1,-3,0,3,-1,14,57,64,33,-6,-15
1,0,-2,0,2,-1,17,57,64,34,-5,-14
1,0,-1,-1,2,0,17,55,63,33,-5,-13
2,1,-1,-1,2,0,14,53,60,32,-4,-13
2,1,0,-2,1,1,15,52,59,33,-4,-12
2,2,0,-2,1,1,15,50,57,33,-3,-12
2,2,1,-2,1,2,14,47,55,32,-2,-11
2,3,1,-2,1,2,14,45,53,31,-2,-10
2,3,1,-2,1,2,14,43,51,31,-1,-9
1,3,2,-2,0,3,15,42,49,30,-1,-8
0,3,3,-2,-1,3,16,40,47,30,0,-6
-1,3,4,-1,-2,4,16,37,45,29,1,-5
0,3,4,-2,-1,4,15,34,41,27,1,-4
1,4,4,-3,-1,4,14,31,37,26,2,-3
1,6,5,-3,-1,5,14,29,35,24,2,-2
2,7,5,-5,0,6,13,26,32,23,3,-1
3,9,5,-6,0,7,13,23,30,23,4,0
3,9,6,-6,0,8,14,22,29,22,5,1
1,9,7,-6,-2,8,15,21,27,21,5,2
0,9,7,-4,-3,8,16,19,25,20,5,2
-1,8,8,-4,-4,8,16,18,22,18,5,3
0,9,8,-4,-4,8,15,16,20,17,6,4
1,9,8,-5,-3,9,14,15,19,17,6,4
1,9,8,-5,-3,9,13,13,17,16,6,4
0,8,9,-4,-4,8,12,11,14,14,5,3
-2,8,10,-3,-5,9,11,9,13,13,5,3
-1,9,11,-4,-6,10,11,8,12,13,5,4
-1,10,11,-5,-6,11,10,7,11,12,5,4
-1,10,12,-5,-6,11,8,5,9,10,4,4
-1,10,12,-4,-6,11,7,4,7,8,3,4
-1,10,11,-4,-6,11,5,2,5,7,2,4
0,10,11,-4,-5,11,4,1,3,6,2,4
-1,9,11,-4,-6,11,4,1,2,5,1,4
-2,9,12,-3,-7,11,3,0,2,5,1,4
-2,10,12,-3,-7,11,2,0,1,4,1,3
-2,10,12,-4,-6,10,0,-1,0,4,0,3
-2,10,12,-4,-7,10,0,-1,0,3,0,2
-3,10,13,-3,-8,11,-1,-1,0,3,0,3
-4,10,14,-3,-9,12,-2,-2,-1,2,0,3
-3,9,13,-3,-8,11,-3,-3,-2,1,0,3
-2,9,12,-3,-7,11,-4,-3,-3,0,-1,2
-3,9,12,-2,-7,11,-4,-3,-3,0,-2,2
-5,8,13,-1,-8,10,-4,-3,-3,0,-2,2
-6,7,13,-1,-9,10,-4,-3,-3,0,-2,1
-6,7,12,0,-9,9,-4,-3,-4,0,-2,1
-4,6,11,-1,-7,8,-4,-3,-4,-1,-3,0
-1,6,8,-2,-4,7,-5,-3,-5,-2,-4,0
1,6,6,-3,-2,6,-5,-4,-5,-3,-5,-1
0,6,6,-3,-2,6,-5,-4,-5,-3,-5,-1
0,6,6,-3,-3,6,-5,-4,-5,-3,-5,0
0,7,6,-3,-2,6,-5,-3,-5,-3,-5,0
0,7,5,-3,-2,6,-5,-3,-5,-3,-5,0
0,6,5,-2,-3,5,-5,-2,-5,-3,-5,0
-1,4,5,-1,-3,5,-5,-1,-4,-2,-5,0
-2,3,5,-1,-3,5,-5,-1,-4,-2,-5,0
-1,3,4,-1,-3,4,-5,0,-4,-2,-5,0
-1,3,4,-1,-2,4,-4,0,-3,-2,-5,0
-1,3,3,0,-2,4,-4,0,-3,-2,-5,0
-1,2,2,0,-2,3,-5,0,-3,-2,-5,-1
0,1,1,0,-1,2,-5,0,-4,-3,-6,-1
0,1,0,0,0,1,-6,1,-4,-3,-6,-1
0,0,0,0,0,1,-6,1,-4,-3,-6,-1
0,0,0,0,0,1,-6,1,-3,-3,-6,-1
0,0,0,0,0,1,-6,1,-3,-3,-6,-2
-1,0,0,1,-1,1,-5,1,-3,-3,-6,-2
-1,-1,0,1,-1,0,-5,2,-3,-3,-6,-2
-1,-2,-1,1,0,0,-5,2,-3,-3,-6,-2
-1,-2,-1,2,0,-1,-4,3,-2,-3,-6,-2
-5,-3,2,4,-3,0,-3,4,-1,-1,-5,-1
-11,-3,7,8,-9,2,-1,6,1,0,-3,1
-15,-4,10,10,-12,3,0,7,3,1,-2,2
-11,-4,7,8,-9,1,0,6,2,0,-4,1
-4,-4,0,4,-1,-2,-2,4,-1,-3,-6,-2
2,-4,-6,1,4,-5,-3,3,-3,-5,-8,-4
4,-4,-9,0,7,-6,-4,2,-3,-6,-9,-5
5,-5,-10,0,7,-7,-4,2,-4,-6,-9,-5
4,-6,-10,1,7,-8,-4,1,-4,-7,-10,-6
2,-7,-9,2,6,-8,-4,1,-4,-8,-10,-7
1,-7,-9,3,5,-8,-4,2,-4,-8,-10,-7
0,-7,-8,3,4,-7,-3,2,-3,-7,-10,-6
1,-6,-7,2,4,-6,-2,3,-2,-7,-9,-6
1,-5,-6,2,4,-5,-1,4,-1,-6,-9,-5
0,-6,-6,3,3,-5,-1,4,-1,-6,-9,-5
-1,-6,-5,4,2,-6,-1,3,-1,-6,-9,-5
-1,-6,-5,4,2,-5,0,3,-1,-5,-9,-5
-1,-5,-4,4,2,-5,0,3,-1,-5,-9,-5
-1,-5,-4,3,2,-5,0,4,-1,-5,-8,-5
-1,-5,-4,3,2,-5,0,4,-1,-5,-8,-5
-1,-5,-4,3,2,-5,0,4,-1,-6,-9,-5
-1,-5,-3,3,1,-4,1,4,0,-6,-9,-5
-2,-6,-2,4,0,-4,1,5,0,-5,-8,-5
-3,-6,-2,4,0,-4,2,5,1,-5,-7,-4
-3,-6,-2,4,0,-4,2,6,1,-4,-7,-4
-4,-6,-2,4,0,-4,2,6,1,-4,-7,-4
-4,-6,-3,4,0,-5,2,6,1,-4,-7,-4
-4,-7,-3,5,0,-5,2,6,1,-4,-7,-4
-4,-7,-2,5,-1,-5,2,6,1,-4,-6,-4
-5,-8,-2,6,-1,-5,3,6,1,-3,-6,-4
-5,-8,-2,6,-1,-5,3,6,1,-3,-6,-4
-5,-8,-2,7,-1,-5,3,6,1,-3,-6,-4
-4,-7,-3,6,0,-5,2,6,1,-4,-6,-4
-2,-7,-4,5,1,-6,2,5,1,-4,-7,-5
-1,-7,-5,5,2,-6,1,5,0,-5,-7,-5
-1,-7,-6,4,3,-6,1,4,0,-5,-8,-6
-1,-7,-6,4,3,-6,2,4,0,-5,-8,-6
-1,-7,-6,4,3,-6,3,4,0,-5,-8,-6
-1,-7,-6,4,3,-6,5,4,0,-4,-8,-6
0,-7,-6,3,3,-6,7,4,0,-4,-8,-6
0,-7,-6,3,3,-6,9,4,0,-4,-8,-5
0,-7,-6,3,3,-6,10,4,0,-4,-8,-5
-1,-8,-6,4,3,-7,11,4,0,-4,-7,-5
-2,-9,-6,5,3,-7,12,4,0,-4,-7,-5
-3,-9,-6,6,3,-7,13,5,0,-4,-7,-5
-3,-9,-7,6,3,-8,13,5,0,-4,-7,-5
-2,-9,-7,6,3,-8,13,5,0,-4,-7,-5
0,-7,-7,4,4,-8,14,5,1,-4,-7,-5
0,-6,-5,4,3,-7,14,6,1,-4,-7,-5
-1,-6,-4,4,1,-6,15,6,1,-4,-7,-5
-2,-6,-3,4,0,-5,15,6,1,-4,-7,-5
-3,-6,-2,5,0,-5,15,6,1,-4,-7,-5
-5,-7,-1,5,-1,-4,15,7,1,-4,-7,-5
-7,-7,0,6,-2,-4,15,8,1,-4,-7,-4
-7,-8,0,7,-2,-5,15,8,2,-4,-7,-4
-5,-9,-3,6,0,-6,14,7,1,-4,-8,-5
-4,-10,-5,6,1,-8,13,6,0,-5,-8,-5
-3,-10,-7,6,2,-9,13,5,0,-5,-8,-6
0,-10,-10,5,4,-10,13,5,-1,-6,-9,-6
1,-10,-12,4,6,-11,12,4,-2,-6,-10,-7
1,-10,-11,4,6,-11,13,5,-1,-6,-10,-7
-1,-11,-9,5,4,-11,13,5,-1,-6,-9,-7
-3,-11,-8,7,3,-10,14,6,0,-5,-9,-7
-4,-12,-7,8,2,-10,14,8,0,-5,-10,-7
-4,-12,-8,8,2,-11,15,11,3,-4,-10,-9
-3,-13,-10,8,3,-12,16,14,6,-2,-11,-11
-3,-14,-11,9,4,-13,18,18,10,0,-11,-12
-3,-14,-11,9,4,-13,19,22,15,2,-11,-13
-3,-14,-11,8,4,-12,19,24,19,6,-9,-13
-2,-13,-11,7,4,-12,19,25,23,12,-6,-12
-1,-12,-10,7,4,-11,18,27,28,20,-1,-9
-1,-10,-9,5,4,-10,18,28,35,31,7,-5
0,-6,-7,3,3,-7,16,29,42,43,18,1
0,-1,-2,0,2,-2,13,26,46,56,31,10
1,3,2,-2,0,2,9,20,44,67,44,20
1,8,7,-4,-2,7,5,11,37,77,59,31
3,12,9,-7,-2,11,0,1,27,84,74,44
7,16,9,-11,-1,13,-4,-9,13,88,89,57
12,20,8,-16,2,14,-9,-21,-4,88,105,72
17,25,8,-21,5,16,-14,-34,-23,86,122,88
24,30,6,-27,8,18,-21,-48,-45,82,141,106
30,36,6,-33,12,21,-29,-63,-66,79,162,127
32,43,11,-38,11,27,-38,-78,-84,78,187,151
34,51,17,-42,9,33,-47,-95,-102,77,212,176
40,58,18,-49,11,38,-58,-113,-120,74,234,197
50,65,16,-57,17,40,-69,-132,-138,68,251,214
57,71,14,-64,22,42,-78,-148,-156,58,261,226
59,74,15,-66,22,44,-82,-161,-172,43,261,231
56,73,17,-65,19,45,-82,-170,-187,21,247,226
51,71,20,-61,16,45,-81,-177,-203,-8,219,211
45,67,21,-56,12,44,-79,-185,-220,-44,181,190
39,62,22,-50,9,42,-77,-194,-239,-86,130,160
31,53,21,-42,5,37,-73,-201,-256,-130,71,122
23,41,18,-32,3,30,-69,-207,-271,-173,11,82
15,26,12,-20,2,20,-64,-208,-280,-208,-44,42
6,10,4,-8,1,7,-56,-202,-281,-232,-90,4
-1,-7,-4,4,1,-5,-45,-190,-273,-243,-123,-26
-7,-21,-12,14,2,-17,-35,-174,-259,-243,-142,-48
-11,-31,-18,21,3,-25,-26,-157,-242,-235,-150,-62
-13,-37,-23,25,4,-30,-20,-142,-224,-224,-152,-72
-15,-40,-24,28,4,-32,-15,-127,-205,-211,-150,-79
-17,-42,-24,29,4,-33,-12,-113,-186,-195,-146,-83
-17,-42,-24,30,4,-33,-10,-100,-166,-177,-138,-84
-18,-41,-22,30,2,-32,-8,-87,-146,-157,-128,-82
-20,-38,-17,29,-1,-28,-5,-76,-126,-137,-115,-77
-22,-33,-11,28,-5,-22,-3,-65,-108,-117,-101,-70
-23,-28,-5,25,-9,-17,-1,-54,-90,-99,-87,-62
-23,-22,0,23,-11,-11,2,-44,-74,-83,-75,-54
-22,-18,3,20,-12,-7,5,-34,-60,-69,-64,-47
-20,-14,5,17,-13,-4,7,-25,-47,-56,-55,-41
-18,-11,7,14,-12,-1,8,-17,-36,-45,-48,-36
-15,-8,8,12,-11,0,8,-12,-28,-36,-41,-32
-13,-5,8,9,-11,1,9,-7,-21,-28,-35,-28
-12,-3,10,7,-11,3,9,-3,-14,-20,-29,-24
-13,0,13,6,-13,6,9,1,-8,-13,-22,-19
-13,2,16,5,-14,8,9,4,-2,-7,-17,-14
-11,4,16,4,-13,10,8,6,1,-4,-14,-12
-9,5,14,2,-11,10,7,8,3,-2,-13,-11
-7,5,12,1,-9,9,6,9,4,-1,-13,-11
-6,5,11,1,-8,8,6,9,5,0,-13,-12
-6,4,10,1,-8,7,6,10,6,1,-12,-12
-7,4,11,1,-9,7,6,10,7,2,-12,-12
-6,5,11,0,-9,7,5,10,8,3,-11,-12
-4,5,10,0,-8,7,4,10,8,3,-10,-12
-2,6,8,-1,-6,7,4,11,8,3,-10,-11
-1,6,7,-2,-4,7,5,12,10,4,-10,-11
0,6,6,-2,-2,6,5,13,12,5,-9,-10
0,6,6,-2,-3,6,6,14,13,6,-8,-9
-2,5,6,-1,-4,6,6,15,13,7,-8,-9
-2,4,6,-1,-4,5,5,14,13,7,-8,-9
-2,3,6,-1,-4,4,4,14,13,7,-8,-9
-2,3,6,-1,-4,4,4,15,14,8,-7,-9
-2,3,6,0,-4,4,5,16,15,8,-7,-8
-2,3,6,0,-4,5,5,17,16,8,-6,-8
-2,3,6,0,-4,5,5,18,17,8,-6,-7
-3,3,6,0,-4,5,5,19,17,9,-6,-7
-3,3,6,0,-4,5,5,19,17,9,-6,-8
-2,2,4,0,-3,3,4,18,16,9,-6,-8
-1,1,3,0,-2,1,3,18,16,9,-6,-8
-2,0,2,0,-2,1,3,19,17,10,-5,-7
-2,0,2,1,-2,0,4,19,18,10,-4,-7
-2,-1,1,1,-2,0,4,20,19,10,-4,-7
-1,-2,0,2,0,-1,3,20,19,10,-4,-7
0,-2,-2,2,1,-2,3,20,19,10,-5,-7
0,-3,-3,1,2,-2,3,21,19,10,-5,-8
1,-3,-3,1,2,-3,3,21,19,10,-5,-8
1,-3,-3,1,2,-3,3,21,19,10,-5,-8
0,-3,-3,1,1,-3,3,21,19,11,-5,-8
0,-3,-3,1,1,-3,3,21,19,11,-5,-8
0,-3,-2,1,1,-3,4,21,19,11,-5,-8
0,-3,-2,1,1,-3,4,22,20,11,-5,-8
0,-3,-2,1,1,-2,5,22,20,11,-5,-8
-1,-3,-2,2,0,-2,5,22,21,11,-5,-8
-2,-3,-1,3,0,-2,6,22,21,10,-6,-9
-2,-3,-1,3,0,-2,6,22,20,10,-6,-9
-1,-3,-1,3,0,-2,7,22,20,10,-6,-9
-1,-3,-2,2,0,-3,7,22,21,10,-6,-9
0,-3,-2,2,1,-3,7,22,21,11,-6,-9
0,-3,-2,2,1,-3,8,23,22,11,-6,-8
-2,-3,-2,2,0,-3,9,24,23,11,-5,-8
-4,-4,-1,4,-1,-2,11,25,24,12,-4,-7
-6,-5,0,5,-2,-2,11,26,25,13,-4,-7
-6,-6,0,6,-3,-3,12,26,26,13,-3,-7
-6,-6,0,5,-2,-3,11,27,26,13,-4,-8
-6,-5,0,5,-3,-2,11,27,26,13,-4,-8
-8,-5,3,7,-6,0,12,28,27,14,-3,-8
-13,-5,8,9,-11,2,14,30,30,16,-1,-6
-16,-5,12,11,-14,4,16,32,32,18,0,-5
-13,-4,8,9,-10,2,16,31,31,17,-1,-6
-3,-4,-1,4,-1,-2,14,29,29,15,-4,-9
5,-3,-10,0,7,-6,12,28,28,13,-6,-11
9,-4,-13,-2,11,-8,11,28,28,12,-7,-12
8,-5,-14,-1,11,-9,11,28,28,12,-7,-12
7,-6,-13,0,10,-9,11,29,28,13,-7,-12
5,-6,-11,0,9,-9,11,29,29,13,-7,-12
3,-6,-10,1,7,-8,12,30,30,14,-7,-12
2,-6,-9,2,6,-8,13,31,32,15,-6,-12
1,-6,-8,2,5,-7,14,32,33,16,-6,-12
1,-6,-7,2,5,-6,15,34,35,17,-5,-11
1,-5,-7,1,4,-5,16,36,37,18,-4,-11
1,-5,-6,1,4,-4,16,37,38,19,-4,-11
1,-5,-5,1,4,-4,17,38,39,20,-3,-11
1,-4,-5,1,4,-4,17,38,40,21,-3,-11
1,-4,-4,1,3,-4,17,39,41,22,-3,-11
0,-4,-3,1,2,-4,17,41,43,23,-3,-11
-2,-4,-2,2,0,-4,18,43,45,23,-3,-11
-2,-5,-2,3,0,-4,18,44,47,24,-3,-12
-1,-5,-3,3,0,-4,18,46,48,25,-3,-12
-1,-4,-3,3,1,-4,18,47,50,26,-2,-12
0,-4,-3,3,1,-3,19,48,52,27,-2,-12
-1,-3,-1,3,0,-2,21,50,54,28,-1,-11
-2,-3,0,3,-1,-2,21,51,55,29,-1,-11
0,-3,-1,2,0,-2,19,52,56,30,-1,-11
1,-3,-3,0,2,-2,19,53,57,31,-1,-11
1,-2,-3,0,2,-3,21,55,59,32,0,-11
1,-2,-3,0,2,-3,20,56,61,33,0,-11
0,-3,-3,1,2,-3,20,57,62,34,0,-12
-1,-3,-3,2,1,-3,21,58,64,35,0,-12
-2,-3,-2,3,0,-3,21,59,64,35,0,-13
-2,-3,-1,3,0,-2,21,60,66,36,0,-13
-3,-3,0,3,-1,-1,23,61,68,36,0,-13
-3,-3,0,3,-1,-1,23,62,69,36,0,-13
-2,-2,0,2,-1,-1,22,63,69,36,0,-13
-2,-2,0,2,-1,0,22,63,70,37,0,-13
-4,-2,1,3,-3,0,24,64,72,38,0,-13
-5,-2,2,4,-3,0,24,65,72,38,-1,-14
-3,-2,0,3,-2,-1,22,64,71,37,-2,-15
0,-2,-2,1,1,-3,23,64,71,37,-3,-16
2,-2,-5,0,3,-4,24,64,72,36,-4,-16
5,-2,-6,-1,6,-4,21,63,71,35,-5,-17
6,-2,-7,-2,7,-5,19,63,70,35,-5,-17
5,-2,-7,-2,6,-5,21,63,71,35,-5,-17
3,-3,-6,0,5,-5,23,63,72,35,-5,-18
2,-3,-6,0,4,-5,22,63,72,35,-5,-18
2,-2,-5,0,4,-4,22,64,72,35,-5,-17
0,-1,-2,0,2,-2,24,65,73,36,-5,-16
-2,-1,0,1,0,-1,23,65,72,36,-4,-16
-2,-1,0,1,0,0,23,65,72,36,-4,-15
-2,-1,0,1,0,0,23,64,71,36,-4,-15
-1,-1,0,1,0,0,22,63,71,35,-4,-15
-1,-2,0,1,0,-1,22,62,70,35,-5,-16
-1,-2,-1,1,0,-1,22,60,68,34,-6,-17
-1,-2,-3,1,1,-2,21,58,66,32,-7,-18
-1,-2,-3,2,1,-3,21,56,64,31,-8,-18
-2,-2,-3,2,0,-3,20,54,62,31,-8,-18
-1,-2,-3,2,1,-3,18,51,59,30,-8,-18
0,-2,-3,1,2,-2,17,49,57,29,-7,-17
1,-1,-2,0,1,-1,18,48,56,29,-6,-15
0,0,0,0,0,0,18,46,54,29,-4,-14
0,1,1,0,-1,1,17,44,52,29,-3,-12
-1,2,2,0,-1,2,16,42,50,29,-2,-11
0,2,2,-1,0,2,15,40,47,27,-1,-10
1,3,0,-2,1,2,15,37,44,26,-1,-9
2,3,0,-2,1,2,14,35,41,24,0,-8
1,3,0,-2,1,2,14,33,39,23,0,-7
1,3,1,-2,0,2,14,31,36,21,0,-6
1,3,1,-2,0,2,13,29,33,20,0,-5
3,3,0,-3,2,1,13,26,30,18,1,-4
5,3,-1,-4,3,0,13,23,27,17,1,-4
4,4,-1,-4,3,1,13,21,25,15,1,-3
3,4,1,-4,1,2,13,20,22,14,1,-2
1,5,3,-3,0,4,14,19,21,13,1,-1
0,6,5,-3,-2,5,16,18,20,13,1,0
0,6,6,-2,-3,6,18,18,19,12,1,0
-1,6,7,-2,-4,6,18,16,18,11,1,1
0,7,8,-3,-4,7,19,15,16,10,2,1
1,8,7,-4,-3,7,18,13,14,9,2,1
1,8,6,-4,-2,7,17,12,12,8,2,1
0,7,7,-4,-3,7,18,11,11,8,1,1
-1,6,7,-3,-4,7,19,10,10,7,1,1
-1,6,6,-3,-3,6,17,8,8,5,0,0
-1,6,6,-3,-3,6,14,6,6,3,-2,0
-1,6,6,-3,-3,6,10,4,4,1,-2,-1
-1,6,6,-2,-3,6,7,2,1,0,-3,-1
-2,5,7,-2,-4,6,7,1,0,0,-3,-1
-2,5,8,-2,-5,6,10,0,0,0,-3,-1
-3,6,8,-2,-5,7,9,0,0,-1,-3,-1
-3,7,9,-2,-5,8,9,-1,-1,-1,-3,-1
-2,8,9,-3,-5,9,8,-2,-1,-2,-3,-1
-2,8,10,-3,-6,9,7,-2,-2,-2,-4,-1
-2,8,10,-3,-6,9,6,-3,-2,-3,-4,-2
-2,8,11,-3,-6,9,5,-3,-2,-3,-5,-2
-3,8,12,-2,-7,9,4,-3,-2,-3,-5,-2
-6,8,15,-1,-10,11,3,-3,-2,-3,-4,-1
-9,8,18,0,-13,12,3,-2,-2,-2,-4,0
-10,7,17,0,-13,12,2,-3,-3,-3,-5,-1
-6,7,13,-1,-9,10,0,-5,-5,-5,-7,-2
-2,7,8,-2,-5,8,-1,-6,-6,-7,-8,-4
0,7,6,-3,-3,7,-3,-7,-7,-7,-9,-5
0,7,6,-3,-3,6,-3,-6,-7,-7,-9,-5
0,6,6,-3,-3,6,-3,-6,-7,-7,-9,-5
-1,5,7,-2,-3,6,-3,-6,-7,-7,-9,-5
-1,5,7,-2,-3,6,-3,-5,-7,-8,-9,-5
-2,4,6,-2,-3,5,-3,-5,-7,-8,-9,-5
-2,4,5,-1,-3,5,-4,-5,-7,-8,-9,-5
-3,3,5,0,-4,4,-4,-5,-6,-8,-9,-5
-4,3,6,0,-5,4,-4,-4,-5,-7,-9,-5
-5,2,6,1,-5,4,-4,-3,-5,-7,-9,-5
-4,2,6,1,-5,4,-3,-2,-4,-7,-8,-5
-4,3,6,0,-4,4,-3,-1,-4,-6,-8,-5
-2,3,6,-1,-3,4,-2,-1,-4,-6,-8,-4
-2,3,5,-1,-3,4,-3,-1,-4,-6,-8,-4
-4,2,5,0,-4,4,-3,0,-4,-6,-7,-4
-7,2,7,2,-6,5,-2,0,-3,-5,-6,-3
-8,1,8,4,-7,5,-2,0,-2,-5,-6,-3
-6,0,5,3,-5,3,-4,-2,-3,-6,-7,-4
-2,-1,0,2,-1,0,-5,-5,-5,-7,-9,-5
0,-3,-3,2,2,-3,-6,-6,-5,-9,-10,-6
0,-4,-4,2,3,-4,-6,-7,-6,-9,-11,-7
0,-4,-3,2,2,-4,-6,-7,-6,-9,-11,-6
0,-3,-3,2,2,-3,-6,-7,-5,-8,-10,-6
0,-3,-3,2,2,-3,-6,-7,-5,-8,-10,-6
1,-3,-4,1,3,-3,-6,-7,-4,-8,-10,-7
1,-3,-4,1,3,-3,-6,-6,-4,-8,-10,-7
1,-3,-4,2,3,-3,-5,-6,-3,-8,-11,-7
0,-3,-3,2,2,-3,-5,-6,-3,-8,-11,-7
0,-4,-3,2,1,-3,-4,-6,-3,-8,-11,-7
0,-4,-3,2,1,-3,-4,-6,-3,-9,-11,-8
-1,-5,-3,2,1,-4,-4,-6,-3,-9,-11,-8
-1,-5,-3,3,1,-4,-4,-6,-3,-9,-11,-8
-1,-6,-3,3,1,-4,-4,-6,-3,-9,-11,-8
-2,-6,-3,4,1,-4,-3,-5,-3,-8,-10,-7
-4,-7,-1,6,-1,-4,-3,-5,-2,-8,-10,-7
-6,-7,0,7,-3,-3,-2,-4,-1,-7,-9,-6
-8,-7,1,8,-5,-3,-2,-3,0,-7,-9,-6
-8,-6,1,8,-5,-3,-2,-3,0,-7,-9,-6
-6,-6,0,6,-2,-3,-2,-4,-1,-7,-10,-7
-2,-6,-4,4,2,-5,-4,-5,-3,-9,-11,-8
1,-6,-8,2,5,-6,-6,-7,-4,-10,-12,-10
2,-7,-9,2,6,-7,-6,-7,-4,-10,-13,-10
1,-7,-8,3,5,-7,-6,-7,-4,-10,-13,-10
0,-7,-6,4,3,-7,-6,-6,-3,-9,-12,-9
-2,-7,-5,4,2,-6,-5,-5,-2,-8,-11,-8
-3,-7,-4,5,1,-6,-4,-5,-2,-7,-10,-8
-3,-8,-5,5,1,-6,-4,-5,-2,-7,-10,-8
-3,-8,-5,5,1,-6,-3,-4,-2,-7,-10,-8
-3,-8,-6,5,1,-6,-3,-4,-1,-7,-9,-8
-2,-8,-6,5,2,-6,-3,-4,-1,-7,-9,-8
-1,-8,-7,4,3,-7,-4,-4,-1,-7,-10,-8
0,-8,-8,4,4,-8,-4,-5,-1,-8,-10,-9
-2,-8,-7,5,2,-8,-4,-5,-1,-8,-10,-9
-7,-8,-1,8,-2,-5,-2,-3,0,-6,-9,-7
-14,-8,4,11,-8,-2,0,-2,1,-3,-7,-6
-15,-8,5,11,-9,-2,0,-1,1,-3,-6,-6
-9,-8,0,8,-4,-4,-1,-2,0,-4,-8,-7
-3,-8,-5,5,1,-6,-2,-3,0,-5,-9,-9
-1,-9,-6,5,3,-7,-3,-4,-1,-6,-10,-9
-2,-9,-6,5,3,-7,-3,-4,-1,-6,-11,-9
-2,-9,-7,5,3,-8,-3,-5,-2,-6,-11,-9
-1,-9,-7,5,3,-8,-3,-5,-2,-6,-10,-9
0,-7,-7,4,4,-8,-3,-5,-2,-5,-10,-9
0,-7,-7,3,4,-7,-2,-5,-2,-5,-9,-8
-1,-7,-6,4,3,-7,-1,-4,-2,-5,-9,-8
-2,-8,-5,5,2,-7,-1,-4,-1,-4,-9,-8
-2,-8,-5,5,2,-7,0,-4,-1,-4,-9,-8
-2,-8,-5,5,2,-7,0,-4,-1,-4,-9,-8
-2,-8,-5,5,2,-7,0,-4,-1,-5,-9,-8
-2,-8,-5,5,2,-6,0,-4,-2,-5,-9,-8
-2,-8,-5,5,1,-6,0,-4,-2,-5,-9,-8
-3,-8,-5,5,0,-6,0,-3,-2,-4,-9,-8
-4,-8,-4,6,0,-6,1,-3,-2,-4,-9,-8
-5,-8,-4,6,0,-6,2,-3,-1,-4,-9,-8
-5,-9,-3,7,-1,-6,2,-2,-1,-4,-9,-8
-6,-9,-2,8,-2,-6,3,-2,-1,-3,-8,-8
-9,-9,0,10,-4,-5,4,-1,0,-3,-8,-7
-12,-10,1,11,-6,-5,5,0,0,-3,-7,-7
-11,-11,0,11,-6,-5,4,-1,0,-3,-8,-7
-6,-11,-4,8,-1,-8,3,-2,-2,-5,-9,-9
0,-11,-11,5,5,-11,1,-4,-4,-7,-12,-11
3,-11,-14,3,9,-12,0,-6,-5,-8,-13,-12
3,-11,-14,3,9,-12,0,-6,-6,-8,-14,-12
3,-11,-13,4,8,-12,0,-6,-6,-8,-14,-12
2,-11,-13,4,8,-12,0,-6,-6,-8,-14,-12
0,-11,-11,6,5,-11,0,-6,-6,-8,-14,-12
-4,-12,-8,8,2,-11,1,-5,-5,-8,-13,-11
-6,-12,-7,9,1,-10,1,-5,-5,-8,-13,-11
-6,-13,-7,9,1,-10,1,-5,-5,-8,-13,-11
-5,-13,-8,9,2,-11,2,-6,-5,-8,-13,-11
-3,-12,-9,7,3,-10,2,-6,-5,-8,-13,-11
-2,-12,-9,7,4,-10,3,-6,-5,-8,-13,-11
-3,-12,-8,8,3,-10,3,-6,-5,-8,-13,-11
-5,-13,-7,9,2,-10,4,-5,-5,-8,-13,-10
-6,-13,-7,10,1,-10,5,-4,-4,-7,-13,-10
-6,-13,-7,10,1,-10,6,-2,-2,-6,-12,-10
-6,-14,-7,10,0,-10,8,2,1,-4,-12,-11
-8,-15,-6,12,-1,-10,10,7,6,-1,-12,-11
-10,-16,-5,13,-2,-10,13,12,11,2,-11,-12
-10,-16,-5,13,-2,-10,14,15,15,4,-11,-13
-7,-15,-6,11,0,-10,13,15,17,7,-11,-15
-3,-14,-9,8,4,-11,12,15,19,11,-9,-16
0,-12,-11,6,6,-11,11,15,22,17,-5,-15
2,-9,-11,4,7,-10,9,16,28,26,2,-11
3,-6,-9,2,6,-7,7,17,35,38,12,-4
4,-1,-5,-1,5,-3,5,15,40,51,25,5
5,4,-1,-4,4,1,2,9,39,63,39,16
7,9,2,-8,3,6,-1,0,33,73,54,28
10,15,4,-12,3,9,-5,-10,23,81,70,42
14,19,5,-16,4,12,-10,-21,9,85,87,56
17,23,6,-20,5,14,-14,-33,-9,85,103,71
20,26,7,-23,6,16,-19,-45,-30,82,119,86
24,31,7,-27,8,19,-25,-59,-52,78,137,104
28,36,7,-32,11,22,-34,-75,-74,74,157,125
33,42,9,-38,13,26,-43,-92,-95,71,181,149
37,49,13,-43,13,32,-53,-109,-113,69,205,173
41,58,17,-50,13,38,-63,-127,-131,67,229,197
46,67,20,-57,14,44,-72,-144,-147,63,249,217
51,75,22,-63,15,49,-79,-160,-163,56,263,232
54,79,24,-66,15,52,-84,-173,-178,42,264,238
54,79,24,-67,15,52,-86,-183,-193,21,250,233
52,77,24,-65,14,51,-85,-191,-208,-7,222,217
48,73,25,-61,12,49,-83,-199,-224,-42,182,194
40,68,27,-54,8,48,-81,-207,-242,-82,132,163
29,59,28,-44,2,44,-77,-215,-260,-125,72,125
19,46,27,-32,-2,36,-74,-222,-275,-167,12,84
10,32,21,-21,-5,27,-70,-224,-285,-203,-43,43
2,16,13,-9,-5,15,-64,-220,-288,-228,-89,5
-4,-1,3,2,-4,1,-57,-210,-282,-240,-124,-28
-10,-15,-4,12,-3,-9,-49,-195,-268,-241,-144,-52
-15,-25,-8,20,-3,-16,-42,-179,-251,-233,-153,-66
-20,-31,-10,26,-4,-20,-36,-163,-232,-222,-155,-75
-22,-35,-12,29,-4,-23,-32,-149,-215,-210,-154,-83
-21,-37,-16,29,-2,-26,-31,-136,-197,-197,-150,-88
-20,-38,-18,29,0,-28,-30,-124,-179,-181,-143,-90
-20,-37,-17,28,-1,-27,-29,-111,-159,-162,-132,-87
-22,-34,-12,28,-5,-23,-26,-98,-138,-141,-118,-81
-26,-30,-3,28,-11,-17,-22,-83,-117,-119,-103,-73
-28,-25,3,26,-15,-11,-18,-70,-97,-99,-89,-64
-25,-20,5,22,-14,-7,-16,-59,-81,-83,-77,-56
-20,-15,5,18,-12,-4,-14,-49,-67,-70,-67,-50
-18,-11,6,15,-11,-2,-13,-41,-54,-59,-59,-45
-16,-8,7,12,-10,0,-12,-33,-43,-48,-52,-40
-14,-5,8,9,-10,1,-10,-26,-34,-39,-45,-35
-11,-2,8,6,-10,3,-9,-21,-26,-31,-39,-31
-8,0,8,4,-9,4,-9,-16,-20,-24,-33,-28
-7,1,8,2,-8,5,-8,-12,-15,-18,-28,-25
-5,2,8,1,-7,6,-8,-9,-10,-13,-23,-22
-5,3,9,0,-6,7,-8,-5,-6,-9,-20,-19
-6,4,10,0,-7,7,-7,-2,-2,-5,-17,-16
-7,4,10,1,-7,7,-7,0,1,-3,-16,-15
-7,4,10,1,-7,7,-6,0,3,-1,-15,-14
-5,3,8,1,-6,6,-6,1,4,0,-14,-14
-4,3,7,0,-5,5,-5,2,5,1,-12,-14
-4,3,8,0,-6,6,-4,4,7,3,-11,-13
-5,3,9,1,-7,6,-3,5,8,5,-9,-11
-6,3,9,1,-7,6,-2,7,10,6,-8,-10
-5,2,8,1,-6,6,-2,7,11,6,-8,-10
-5,2,7,1,-5,5,-1,8,12,6,-8,-9
-4,2,5,1,-4,4,-1,8,12,6,-8,-10
-2,1,4,0,-3,3,-2,8,12,6,-9,-10
-1,1,3,0,-2,2,-2,8,12,7,-9,-10
-1,0,2,0,-2,1,-2,8,12,7,-8,-10
-1,0,2,0,-1,1,-2,9,12,8,-8,-10
0,0,2,0,-1,1,-2,10,13,8,-7,-10
0,0,1,0,0,1,-1,10,13,8,-7,-9
0,0,1,0,0,0,-1,10,14,8,-7,-9
-1,-1,0,1,0,0,-1,10,14,8,-7,-9
-2,-2,0,3,0,-1,0,11,14,9,-7,-9
-3,-2,0,3,-1,-1,0,11,15,9,-6,-9
-3,-2,0,3,-2,0,1,12,15,10,-6,-9
-3,-2,0,3,-2,0,2,13,16,10,-6,-9
-4,-3,1,4,-2,0,3,13,16,10,-6,-9
-4,-3,1,4,-2,0,3,14,16,10,-6,-9
-4,-3,1,4,-2,0,4,14,17,10,-6,-9
-4,-3,1,4,-1,0,4,14,17,10,-6,-9
-5,-3,1,4,-2,0,5,15,17,10,-6,-9
-4,-3,0,4,-2,0,5,15,17,10,-6,-9
-3,-3,-1,3,0,-1,5,14,16,9,-7,-9
-1,-4,-2,2,0,-2,4,13,16,8,-8,-10
-1,-4,-3,3,1,-3,4,13,16,8,-8,-10
-1,-4,-4,2,2,-4,4,13,16,7,-8,-11
0,-4,-5,2,3,-4,4,13,16,7,-8,-11
0,-4,-5,2,4,-4,4,13,16,7,-8,-11
-1,-5,-4,2,3,-4,4,13,16,8,-8,-11
-2,-5,-4,3,2,-4,5,13,16,8,-8,-11
-2,-6,-4,4,1,-4,5,13,16,8,-8,-11
-2,-6,-3,4,1,-4,6,14,17,9,-7,-11
-2,-6,-3,4,1,-4,7,14,18,9,-7,-10
-2,-6,-3,4,1,-4,7,15,19,9,-7,-10
-3,-6,-3,5,1,-5,8,15,19,9,-7,-10
-3,-6,-4,5,1,-5,8,16,20,9,-7,-11
-3,-5,-3,5,0,-4,8,17,20,9,-6,-10
-5,-5,-1,5,-2,-3,9,18,22,11,-5,-10
-7,-6,0,6,-3,-2,10,19,23,11,-5,-10
-4,-6,-2,4,0,-4,9,18,22,11,-7,-12
-1,-6,-5,3,2,-5,8,18,21,10,-8,-13
-1,-6,-5,3,2,-5,8,19,22,10,-8,-13
-1,-6,-5,3,2,-5,8,20,22,11,-7,-13
-1,-6,-5,3,2,-5,8,20,23,11,-7,-12
-1,-5,-4,3,2,-5,9,21,24,12,-6,-12
-1,-5,-4,3,2,-4,9,22,25,12,-6,-11
0,-5,-5,2,3,-5,9,22,25,13,-6,-12
1,-6,-7,2,4,-6,9,23,25,13,-6,-12
0,-6,-7,3,4,-6,9,24,26,14,-6,-12
-1,-6,-6,4,3,-6,9,25,28,15,-5,-12
-1,-6,-6,4,3,-6,10,25,29,15,-5,-12
-2,-6,-5,5,2,-6,10,26,30,15,-5,-12
-2,-6,-5,4,2,-6,11,27,31,16,-5,-12
-2,-6,-4,4,2,-5,11,28,32,17,-5,-12
-2,-6,-4,4,1,-5,11,29,33,18,-5,-12
-2,-6,-4,4,1,-5,11,30,34,18,-6,-13
-2,-6,-4,4,1,-4,11,31,35,19,-6,-13
-3,-5,-3,3,1,-4,12,33,37,20,-5,-12
-4,-5,-2,4,0,-3,13,34,39,21,-5,-12
-5,-6,-1,5,-2,-3,14,36,40,22,-4,-11
-8,-6,1,7,-4,-2,15,38,42,23,-3,-11
-8,-6,2,7,-5,-2,15,39,44,24,-3,-11
-5,-6,-1,6,-2,-3,14,39,44,24,-4,-12
-1,-6,-5,4,2,-5,13,39,44,23,-5,-13
1,-6,-8,2,5,-6,13,39,45,23,-6,-14
3,-5,-9,1,6,-6,13,41,46,24,-6,-14
4,-4,-9,0,7,-6,13,42,48,25,-6,-14
4,-4,-8,0,7,-6,13,44,50,25,-6,-14
3,-4,-8,0,6,-6,13,45,51,26,-6,-14
2,-5,-7,1,5,-6,13,46,53,27,-6,-15
0,-6,-7,2,4,-6,13,47,54,27,-6,-15
-1,-7,-6,3,3,-6,14,49,55,28,-6,-16
-2,-7,-6,4,2,-5,14,51,57,29,-6,-16
-2,-6,-5,4,2,-5,15,53,59,30,-6,-16
-1,-6,-5,4,2,-5,16,54,61,31,-6,-16
-1,-6,-5,3,2,-5,16,55,62,31,-7,-17
0,-6,-6,3,2,-5,16,55,62,31,-7,-17
0,-6,-6,2,3,-6,16,55,62,31,-8,-18
1,-5,-6,2,3,-5,16,55,62,32,-8,-18
1,-5,-6,2,3,-5,17,56,63,32,-8,-18
1,-5,-6,2,4,-5,17,57,64,32,-8,-18
1,-5,-6,2,4,-5,18,58,65,32,-9,-18
0,-5,-6,2,4,-5,18,59,66,32,-9,-18
-1,-5,-4,3,2,-4,18,59,67,33,-8,-18
-3,-5,-2,4,0,-4,19,60,68,33,-8,-18
-4,-5,-2,4,0,-4,19,60,68,33,-9,-19
-2,-5,-3,4,1,-4,18,60,68,33,-9,-19
-1,-5,-5,3,3,-4,18,60,68,33,-10,-20
1,-5,-6,2,4,-5,18,60,68,32,-10,-20
2,-5,-7,1,6,-5,18,59,68,32,-11,-21
3,-5,-8,0,7,-6,18,58,67,31,-11,-21
3,-5,-8,1,6,-6,18,58,67,31,-12,-21
1,-5,-7,1,5,-6,18,57,67,30,-12,-21
1,-5,-6,1,4,-6,19,57,67,30,-12,-21
1,-4,-5,0,4,-5,19,57,67,31,-11,-20
2,-2,-5,0,4,-3,19,57,67,32,-11,-20
2,-1,-4,0,3,-2,20,57,67,32,-10,-19
1,-1,-2,0,2,-1,20,56,66,32,-10,-19
1,0,-2,0,1,-1,20,55,65,32,-10,-18
1,0,-1,0,1,-1,20,54,64,32,-10,-18
1,0,-1,0,1,-1,20,52,62,31,-10,-18
1,0,-1,0,1,-1,20,50,60,30,-10,-17
1,0,-1,0,1,-1,19,48,58,29,-9,-17
1,0,-1,0,1,0,19,46,56,29,-9,-16
1,1,0,0,0,0,20,44,54,29,-8,-15
1,1,0,-1,0,1,20,42,52,29,-7,-13
1,2,1,-2,0,2,20,40,50,29,-6,-12
1,4,2,-3,0,3,20,38,48,28,-5,-10
1,5,3,-4,0,5,20,35,46,28,-3,-9
1,7,5,-4,-1,6,21,32,43,27,-2,-7
0,7,7,-4,-2,7,21,29,41,26,0,-5
-1,8,9,-4,-4,8,22,28,39,26,1,-3
-2,8,11,-3,-6,9,22,26,37,26,2,-1
-2,8,12,-3,-7,10,22,25,35,25,3,0
-3,9,13,-2,-8,11,22,24,33,24,4,1
-3,9,13,-3,-8,12,22,21,30,23,4,2
-1,10,10,-4,-5,11,21,17,27,21,3,2
3,10,6,-6,-1,9,18,13,23,18,2,1
5,10,4,-7,1,7,16,9,19,16,1,1
5,10,4,-7,1,7,15,7,16,14,1,1
4,9,5,-6,0,7,13,5,14,13,0,2
2,9,6,-6,-1,8,13,4,13,12,0,2
1,9,7,-6,-2,8,13,3,11,11,0,3
1,10,8,-6,-3,9,13,2,10,11,1,3
0,10,9,-5,-4,10,12,1,9,9,1,4
0,9,10,-5,-5,10,10,-1,6,8,0,4
0,9,10,-5,-5,10,8,-3,4,6,0,4
0,9,10,-5,-5,10,7,-5,2,5,0,4
0,10,10,-5,-5,10,6,-6,1,4,0,4
0,9,10,-5,-5,10,4,-6,0,3,-1,4
-1,8,9,-4,-5,9,2,-7,0,2,-2,3
-2,8,10,-3,-6,9,1,-7,-1,2,-2,3
-6,8,14,-1,-9,11,0,-6,-1,2,-2,4
-10,8,19,0,-13,14,1,-5,0,3,-1,5
-9,9,19,0,-13,14,0,-6,-1,2,-1,6
-4,9,14,-3,-9,12,-1,-8,-4,0,-2,4
0,8,8,-4,-4,9,-3,-10,-6,-3,-4,2
3,8,5,-5,-1,7,-4,-11,-8,-4,-5,1
3,8,4,-5,0,7,-4,-10,-8,-4,-6,1
3,7,4,-5,0,6,-4,-10,-7,-4,-7,1
3,7,4,-5,0,6,-3,-9,-7,-4,-7,1
2,6,4,-5,0,6,-3,-9,-7,-4,-7,1
1,5,4,-4,0,6,-3,-9,-7,-4,-7,1
0,4,4,-3,-1,6,-3,-10,-8,-4,-7,1
0,3,4,-2,-2,5,-3,-9,-8,-4,-6,1
-1,3,4,-2,-2,5,-2,-9,-8,-4,-6,2
0,2,3,-1,-1,4,-2,-8,-7,-4,-7,2
0,2,2,-1,-1,3,-2,-7,-7,-4,-7,1
0,1,2,-1,0,2,-3,-7,-7,-4,-7,1
-1,0,2,0,-1,2,-3,-6,-6,-4,-7,1
-2,0,2,0,-1,2,-3,-6,-6,-4,-7,1
-3,0,3,0,-2,2,-3,-5,-6,-4,-7,1
-3,0,3,1,-3,2,-3,-5,-6,-4,-7,1
-3,-1,3,2,-3,2,-2,-4,-6,-4,-7,1
-4,-2,3,3,-4,2,-2,-4,-6,-4,-7,1
-5,-3,3,4,-4,1,-1,-3,-6,-4,-7,2
-6,-3,3,4,-5,1,-1,-3,-5,-4,-7,2
-5,-2,3,3,-4,1,0,-3,-5,-4,-7,2
-2,-2,0,2,-1,0,0,-3,-5,-4,-7,2
-1,-2,-1,1,0,-1,0,-3,-6,-5,-7,1
0,-3,-2,1,1,-1,0,-3,-6,-5,-8,1
1,-3,-4,0,3,-2,0,-4,-6,-6,-8,1
3,-3,-6,0,5,-3,1,-4,-6,-6,-9,0
4,-3,-7,-1,6,-4,2,-4,-6,-7,-10,0
3,-4,-7,0,6,-5,3,-4,-7,-7,-11,-1
2,-5,-7,0,5,-5,4,-4,-7,-8,-11,-1
2,-5,-7,0,5,-5,5,-4,-7,-8,-11,-2
2,-5,-7,0,5,-5,6,-4,-7,-9,-11,-2
2,-5,-6,0,5,-5,7,-4,-7,-9,-11,-2
1,-5,-5,1,3,-4,8,-3,-7,-9,-12,-2
-1,-5,-3,3,1,-3,10,-3,-6,-8,-12,-2
-2,-5,-2,3,0,-3,11,-2,-6,-8,-12,-2
-3,-5,-2,4,0,-3,11,-1,-6,-8,-12,-2
-3,-6,-3,4,0,-4,12,-1,-6,-8,-12,-2
-3,-6,-3,4,0,-4,12,-1,-6,-8,-12,-2
-3,-7,-4,4,0,-5,12,-1,-6,-8,-12,-2
-3,-7,-4,5,0,-5,12,-1,-6,-8,-12,-3
-3,-8,-4,5,0,-5,13,-1,-6,-8,-12,-3
-3,-8,-4,5,0,-5,14,-1,-5,-8,-12,-3
-3,-8,-3,5,0,-5,14,0,-5,-8,-12,-3
-4,-8,-3,5,0,-5,14,0,-5,-8,-12,-3
-5,-8,-3,6,0,-5,14,1,-4,-8,-12,-3
-5,-8,-3,6,0,-5,14,1,-4,-7,-12,-3
-6,-8,-1,7,-2,-4,14,2,-3,-7,-11,-3
-8,-8,0,7,-4,-3,15,3,-2,-6,-10,-2
-7,-8,0,7,-3,-3,15,4,-1,-6,-10,-2
-4,-8,-3,5,0,-5,13,3,-3,-7,-11,-3
0,-8,-8,4,5,-7,12,1,-4,-9,-13,-5
2,-8,-10,3,7,-8,11,0,-5,-10,-14,-6
2,-7,-10,2,7,-8,11,0,-5,-9,-14,-6
1,-7,-9,2,6,-7,11,1,-4,-8,-13,-5
0,-7,-8,2,5,-7,11,1,-4,-8,-13,-5
0,-7,-7,2,4,-7,10,1,-4,-7,-13,-4
-1,-7,-6,3,3,-6,10,2,-3,-7,-12,-4
-2,-7,-5,4,2,-6,11,2,-3,-6,-12,-4
-2,-8,-5,4,1,-6,11,3,-3,-6,-11,-4
-3,-8,-5,5,1,-6,12,3,-3,-6,-11,-4
-3,-9,-6,5,1,-6,11,3,-3,-6,-12,-5
-3,-9,-6,6,1,-7,10,3,-3,-6,-12,-5
-5,-10,-5,6,0,-6,11,3,-3,-6,-12,-5
-7,-10,-3,7,-1,-6,11,3,-3,-5,-11,-5
-8,-10,-2,8,-2,-5,11,4,-2,-5,-11,-5
-8,-9,-2,7,-2,-5,12,4,-2,-5,-10,-4
-7,-9,-2,7,-2,-5,12,4,-2,-5,-10,-4
-5,-9,-4,6,0,-6,12,4,-2,-5,-11,-4
-3,-8,-5,5,1,-6,11,4,-2,-5,-11,-4
-2,-8,-5,4,1,-5,11,4,-2,-5,-10,-4
-1,-7,-6,4,2,-5,11,4,-2,-5,-11,-4
0,-7,-6,4,3,-6,11,3,-3,-6,-12,-5
-1,-7,-6,4,3,-7,10,3,-4,-6,-12,-6
-1,-8,-6,4,3,-7,10,3,-4,-6,-12,-6
-1,-8,-7,4,3,-8,11,3,-4,-6,-12,-6
-1,-9,-7,4,3,-8,11,3,-4,-6,-12,-6
-2,-10,-7,5,3,-8,12,4,-4,-6,-12,-6
-2,-10,-7,5,3,-8,13,4,-3,-6,-11,-6
-2,-10,-8,6,3,-8,13,4,-3,-6,-11,-6
-2,-10,-8,6,3,-8,12,4,-4,-7,-11,-6
-2,-10,-8,6,3,-8,13,4,-4,-7,-12,-6
-3,-11,-7,7,2,-8,13,3,-4,-7,-12,-6
-5,-11,-5,8,0,-7,14,3,-4,-6,-11,-6
-8,-11,-2,9,-3,-6,15,4,-3,-6,-11,-5
-10,-11,-1,10,-4,-6,16,4,-3,-5,-10,-5
-9,-12,-3,10,-3,-7,15,3,-3,-6,-11,-5
-6,-12,-6,9,0,-9,14,2,-5,-7,-12,-7
-3,-13,-10,8,3,-11,13,1,-6,-8,-13,-8
-2,-13,-11,8,4,-12,14,2,-6,-9,-14,-9
-3,-14,-11,8,4,-12,15,5,-4,-8,-15,-9
-4,-14,-10,9,3,-12,17,9,0,-6,-15,-10
-4,-15,-10,9,3,-13,19,14,4,-4,-15,-11
-3,-15,-12,8,4,-14,20,17,8,-2,-16,-13
-2,-15,-13,7,6,-14,21,19,11,0,-16,-14
-1,-14,-13,7,6,-13,21,20,14,4,-13,-14
0,-12,-12,6,6,-11,22,22,19,11,-9,-12
0,-10,-11,5,6,-10,21,25,25,19,-2,-9
1,-8,-9,3,6,-8,20,27,33,30,6,-3
2,-5,-7,1,6,-6,17,26,39,43,17,4
3,0,-4,-2,5,-3,13,20,41,55,30,14
4,4,-1,-5,3,1,8,12,37,66,45,25
6,9,2,-8,3,5,4,2,29,76,61,38
9,13,3,-11,3,8,0,-9,16,82,78,52
13,18,4,-15,5,11,-4,-21,0,85,96,68
17,22,5,-20,6,14,-8,-35,-21,85,114,84
21,27,6,-24,8,17,-14,-49,-44,83,132,102
27,33,5,-30,11,19,-22,-66,-67,79,152,122
34,39,3,-37,15,21,-32,-84,-90,75,174,144
41,46,3,-44,19,24,-43,-103,-111,73,197,167
46,53,6,-51,20,29,-52,-122,-129,71,221,190
49,61,10,-56,20,35,-60,-140,-146,68,243,212
51,67,14,-59,19,41,-69,-157,-163,62,260,230
53,70,16,-62,20,44,-76,-172,-179,50,265,239
55,71,15,-63,21,44,-79,-185,-195,30,253,237
55,70,14,-63,21,43,-79,-195,-211,1,226,222
52,68,15,-60,18,42,-78,-204,-228,-33,187,200
46,64,17,-56,15,40,-76,-214,-247,-73,139,172
39,57,18,-49,11,38,-72,-224,-266,-116,81,135
31,48,16,-40,8,32,-68,-232,-284,-160,20,95
23,35,12,-30,6,24,-64,-237,-297,-198,-35,56
13,20,7,-17,4,14,-58,-235,-302,-225,-82,19
3,3,1,-3,2,2,-49,-225,-296,-240,-118,-14
-4,-12,-7,8,3,-10,-39,-209,-283,-244,-142,-41
-9,-25,-15,16,4,-20,-30,-191,-266,-239,-154,-59
-12,-33,-20,22,4,-26,-23,-174,-248,-229,-158,-71
-15,-37,-22,25,3,-30,-18,-158,-229,-217,-158,-79
-17,-39,-21,28,2,-30,-14,-143,-209,-202,-153,-84
-20,-40,-20,29,0,-30,-12,-128,-188,-185,-145,-86
-20,-39,-18,29,0,-28,-10,-113,-167,-166,-135,-84
-20,-36,-16,28,-1,-25,-8,-100,-146,-146,-122,-79
-21,-32,-11,27,-3,-21,-6,-86,-126,-126,-109,-73
-22,-28,-6,25,-7,-16,-2,-73,-106,-107,-95,-66
-23,-23,0,23,-11,-11,1,-60,-88,-90,-83,-58
-23,-19,3,21,-13,-7,5,-49,-73,-76,-72,-51
-22,-15,6,18,-14,-4,8,-38,-59,-63,-63,-45
-21,-12,8,16,-15,-1,11,-28,-46,-51,-54,-39
-20,-9,10,14,-14,1,13,-21,-36,-41,-46,-33
-18,-6,11,11,-14,3,15,-15,-27,-32,-39,-28
-15,-3,11,9,-13,5,15,-10,-21,-25,-33,-24
-12,-1,11,6,-11,6,15,-7,-15,-18,-28,-20
-9,1,11,3,-10,7,14,-3,-10,-13,-23,-17
-7,3,11,1,-9,7,14,0,-6,-9,-20,-14
-7,4,11,0,-9,8,14,2,-2,-6,-17,-13
-7,4,11,0,-8,8,14,4,0,-4,-16,-11
-6,4,10,0,-7,7,14,5,2,-3,-15,-11
-4,4,8,0,-6,7,14,6,3,-1,-14,-10
-3,4,7,-1,-5,6,14,7,4,0,-13,-10
-3,4,7,-1,-5,6,13,7,5,0,-12,-10
-3,4,7,-1,-5,6,13,8,6,1,-12,-9
-3,4,7,-1,-4,5,12,8,7,1,-11,-9
-3,4,6,-1,-4,4,11,9,8,2,-11,-9
-3,3,6,0,-4,4,11,10,9,2,-11,-9
-3,3,5,0,-3,3,12,11,10,3,-10,-9
-2,2,4,0,-3,3,12,11,11,3,-10,-9
-2,2,4,0,-3,3,10,11,11,4,-9,-8
-3,1,4,0,-3,3,10,12,12,4,-9,-8
-4,1,4,0,-3,2,10,12,12,5,-9,-8
-3,1,3,0,-3,2,8,13,12,5,-9,-8
-2,1,3,0,-2,1,10,13,13,5,-8,-8
-2,0,3,0,-2,1,11,14,14,6,-8,-8
-2,0,3,0,-2,1,10,14,14,6,-7,-8
-2,0,2,1,-2,1,11,15,15,7,-7,-8
-3,0,2,1,-2,1,11,15,16,7,-7,-7
-4,-1,2,2,-2,0,10,16,16,8,-6,-7
-4,-1,2,2,-2,0,11,16,16,8,-6,-7
-4,-2,1,2,-2,0,11,16,16,8,-6,-7
-3,-2,0,2,-1,-1,11,16,16,8,-6,-7
-2,-2,0,2,-1,-1,11,17,16,8,-6,-6
-3,-2,1,2,-1,-1,12,17,17,8,-6,-6
-5,-3,1,4,-2,-1,12,17,18,9,-5,-6
-7,-4,2,5,-4,-1,13,18,18,9,-5,-6
-7,-4,2,6,-4,-1,13,18,18,8,-5,-6
-5,-5,-1,5,-1,-3,13,17,17,7,-6,-7
-1,-5,-4,3,2,-5,13,17,16,6,-7,-8
1,-5,-5,2,4,-5,13,17,16,5,-7,-9
2,-4,-5,1,4,-4,13,18,16,5,-7,-9
2,-4,-5,1,4,-4,14,18,17,5,-7,-9
2,-4,-5,0,4,-4,15,18,17,6,-7,-9
2,-4,-5,0,4,-4,16,19,18,6,-7,-9
1,-4,-4,1,3,-4,17,19,19,7,-7,-9
0,-4,-4,1,2,-4,18,20,19,7,-7,-9
0,-4,-4,2,2,-4,17,20,19,7,-7,-9
0,-4,-4,2,2,-4,18,21,20,7,-7,-9
-1,-5,-3,3,1,-4,20,22,21,7,-7,-8
-2,-5,-2,4,0,-4,20,23,21,8,-7,-8
-4,-5,0,5,-1,-3,21,24,22,8,-6,-8
-9,-5,3,6,-5,-1,23,26,24,10,-5,-7
-11,-5,5,7,-8,0,25,27,25,11,-4,-6
-8,-5,2,6,-4,-1,24,27,25,10,-5,-7
-2,-6,-4,3,2,-4,22,25,23,8,-7,-9
1,-6,-8,2,5,-6,22,25,23,8,-7,-10
1,-6,-8,2,5,-6,23,26,24,8,-7,-10
1,-6,-7,3,4,-6,23,27,25,9,-7,-10
1,-6,-7,2,4,-7,23,27,25,9,-7,-11
2,-6,-8,1,5,-7,24,27,25,9,-7,-11
1,-6,-7,1,5,-7,24,28,25,9,-7,-11
0,-6,-6,2,4,-6,25,29,26,10,-7,-11
-1,-6,-6,2,3,-6,25,30,28,11,-7,-10
-1,-6,-6,2,3,-5,26,32,29,12,-6,-10
-1,-5,-5,3,2,-5,27,33,31,13,-6,-9
-2,-5,-4,3,2,-4,28,35,33,13,-6,-9
-2,-5,-3,3,1,-4,29,36,34,14,-6,-9
-2,-5,-3,3,1,-4,29,36,34,14,-6,-10
-2,-5,-2,3,1,-3,30,37,35,15,-5,-10
-4,-5,-1,4,0,-3,31,38,36,16,-5,-10
-6,-5,0,5,-2,-2,32,40,38,17,-4,-10
-8,-5,2,6,-4,-2,33,42,40,18,-4,-9
-8,-5,3,6,-5,-1,34,45,43,20,-3,-9
-8,-5,3,6,-5,-1,35,46,44,21,-3,-9
-5,-5,0,5,-2,-2,35,46,45,21,-4,-10
-1,-5,-4,3,2,-4,34,45,45,20,-5,-11
2,-5,-7,1,5,-6,34,45,45,19,-6,-12
4,-4,-8,0,7,-6,34,45,46,19,-6,-13
4,-4,-8,0,7,-6,33,46,47,20,-6,-13
3,-4,-7,0,6,-6,33,48,48,21,-6,-13
2,-4,-6,0,5,-6,34,50,51,22,-6,-13
2,-4,-6,0,4,-5,36,52,53,24,-6,-13
2,-3,-5,0,4,-5,36,53,55,25,-5,-13
2,-3,-5,0,3,-4,36,55,56,26,-5,-13
1,-4,-5,1,3,-4,37,56,58,27,-5,-13
1,-4,-5,1,3,-4,37,57,59,27,-5,-13
2,-3,-5,0,3,-3,37,58,61,28,-5,-13
2,-2,-4,0,3,-3,37,60,62,29,-5,-14
1,-2,-4,0,3,-3,37,61,64,30,-5,-14
1,-3,-4,1,2,-3,37,62,65,30,-6,-15
0,-3,-4,1,2,-4,37,63,66,31,-6,-15
0,-3,-4,1,2,-4,37,64,68,31,-6,-15
0,-3,-4,1,2,-4,37,65,69,32,-6,-15
1,-3,-4,1,3,-4,35,66,68,32,-6,-15
1,-3,-4,1,3,-4,36,66,69,32,-6,-16
1,-3,-4,1,3,-4,37,67,71,32,-7,-16
1,-3,-4,1,3,-3,35,67,71,32,-7,-17
0,-3,-2,1,1,-2,34,68,72,33,-7,-16
-5,-3,1,3,-2,-1,36,70,74,34,-6,-15
-8,-3,5,5,-6,1,36,71,75,35,-6,-15
-7,-3,4,4,-5,0,35,70,75,34,-7,-15
-3,-3,-1,2,0,-2,33,69,73,33,-9,-17
1,-3,-5,0,3,-4,31,67,72,31,-10,-18
3,-3,-6,0,5,-4,30,66,71,30,-11,-19
4,-3,-7,0,5,-4,28,67,71,30,-11,-19
4,-3,-7,0,5,-4,27,67,71,30,-11,-19
4,-3,-7,-1,6,-5,25,67,71,29,-11,-19
4,-3,-7,-1,6,-5,25,66,71,29,-12,-20
3,-3,-6,0,5,-4,25,65,70,29,-12,-20
2,-3,-5,0,5,-4,24,64,70,29,-12,-20
2,-3,-4,0,4,-3,25,63,69,29,-12,-20
1,-3,-3,0,3,-3,25,62,68,29,-12,-19
1,-3,-3,0,2,-2,24,61,67,28,-12,-19
1,-3,-3,0,2,-2,24,59,65,28,-12,-19
0,-2,-2,1,2,-2,23,57,63,27,-12,-18
0,-1,-2,0,2,-2,22,55,61,27,-11,-17
1,0,-1,0,2,-1,22,53,60,27,-10,-16
1,0,0,-1,1,0,22,51,58,27,-9,-15
1,1,0,-1,1,1,21,49,56,26,-8,-14
1,2,1,-2,1,2,21,47,54,26,-7,-12
1,2,1,-2,0,2,20,45,51,25,-6,-11
1,2,2,-2,0,3,21,43,49,25,-5,-10
1,2,2,-2,0,3,21,41,46,24,-4,-8
0,2,3,-2,-1,3,21,38,43,22,-4,-7
0,2,4,-1,-2,3,21,35,40,21,-3,-6
-2,3,5,0,-3,4,21,33,38,20,-2,-5
-3,3,6,0,-5,5,22,31,36,20,-1,-3
-3,4,8,0,-6,6,22,29,34,19,0,-1
-4,5,9,-1,-6,7,24,27,32,19,2,0
-3,5,10,-1,-6,8,25,25,29,18,3,1
-1,6,8,-3,-4,7,25,23,26,16,2,2
1,6,6,-4,-2,7,26,20,23,14,2,2
2,7,4,-5,-1,6,26,18,20,12,2,2
3,7,3,-5,0,6,26,16,18,11,1,2
4,7,2,-6,1,5,26,14,16,9,1,2
6,7,0,-7,3,4,26,12,14,8,0,1
6,6,0,-7,3,3,25,11,12,6,-1,1
5,6,0,-6,3,3,25,10,10,5,-1,1
3,6,1,-5,1,4,25,8,9,4,-1,1
2,6,2,-4,0,4,23,6,7,3,-1,1
2,6,3,-4,-1,5,22,5,6,2,-1,1
1,6,4,-4,-1,5,21,3,5,2,-1,1
0,7,5,-4,-2,6,20,2,5,2,-1,2
-1,7,7,-4,-3,7,20,2,4,1,-1,2
-1,7,8,-3,-4,7,19,1,3,1,-1,2
-1,7,8,-3,-4,7,17,0,2,0,-1,2
-1,7,8,-3,-3,7,15,0,1,-1,-2,1
0,7,7,-4,-2,7,14,-1,0,-2,-2,1
1,8,7,-5,-2,7,12,-2,-2,-3,-3,1
1,8,7,-5,-2,7,11,-3,-3,-3,-3,1
0,7,8,-3,-3,7,10,-4,-3,-4,-3,1
-1,7,8,-3,-4,7,9,-4,-3,-4,-3,1
-2,7,8,-2,-4,7,8,-4,-3,-4,-4,0
-2,6,9,-2,-5,7,7,-4,-4,-5,-4,0
-3,6,9,-1,-5,7,7,-4,-4,-5,-4,0
-4,6,10,-1,-6,8,6,-4,-4,-5,-4,0
-4,6,10,-1,-7,8,6,-3,-4,-5,-4,0
-5,5,10,0,-7,8,5,-3,-4,-5,-5,0
-5,4,9,0,-6,7,4,-3,-5,-6,-6,0
-5,3,8,1,-6,6,4,-4,-5,-6,-6,-1
-4,4,7,0,-5,5,4,-3,-5,-6,-6,-1
-3,4,7,0,-5,6,5,-2,-4,-5,-6,0
-3,4,7,0,-5,6,5,-1,-4,-5,-6,0
-3,4,6,0,-5,5,5,-1,-4,-6,-6,0
-2,3,5,0,-4,5,5,-1,-4,-6,-6,-1
-1,3,4,-1,-3,4,4,-1,-4,-6,-6,-1
-1,3,3,-1,-2,3,4,-1,-4,-6,-7,-1
-1,2,2,-1,-2,3,4,-1,-4,-6,-7,-1
-1,2,3,0,-2,3,4,0,-3,-6,-7,-1
-2,1,3,1,-3,3,3,0,-3,-6,-7,-1
-2,1,3,1,-2,2,2,0,-3,-6,-7,-1
-1,1,1,0,-1,1,1,0,-3,-7,-7,-1
0,0,0,0,0,0,0,0,-3,-7,-8,-2
0,0,-1,0,0,0,-1,0,-3,-7,-8,-2
0,-1,-1,0,0,-1,-1,0,-3,-7,-8,-2
0,-2,-1,1,1,-1,-1,0,-3,-7,-8,-2
0,-2,-1,1,1,-2,-2,0,-3,-7,-9,-2
-2,-2,0,2,0,-1,-2,1,-3,-7,-9,-2
-3,-3,0,3,-1,-1,-2,2,-2,-6,-8,-2
-3,-3,-1,3,-1,-2,-2,3,-2,-7,-9,-2
-2,-3,-2,2,0,-2,-3,3,-2,-7,-9,-3
0,-3,-3,2,1,-3,-4,3,-2,-8,-10,-3
1,-4,-5,1,3,-4,-4,2,-2,-8,-10,-3
1,-5,-5,2,4,-4,-4,2,-3,-9,-11,-4
-1,-6,-4,3,2,-4,-3,2,-3,-9,-11,-4
-4,-6,-2,4,0,-4,-2,3,-3,-8,-10,-4
-4,-6,-2,4,0,-4,-1,3,-2,-8,-10,-4
-4,-6,-2,4,0,-4,-1,4,-2,-8,-10,-4
-3,-5,-2,3,0,-4,0,4,-1,-8,-10,-3
-3,-4,-1,3,0,-3,0,4,0,-7,-10,-3
-5,-4,0,4,-2,-3,1,5,1,-7,-9,-2
-6,-4,1,5,-3,-2,1,5,1,-6,-9,-2
-6,-4,1,5,-3,-2,1,5,1,-6,-9,-2
-4,-4,0,4,-1,-2,1,4,1,-6,-9,-3
-1,-4,-4,2,2,-4,0,3,0,-7,-10,-4
1,-5,-7,1,5,-5,-1,2,-1,-8,-11,-5
3,-5,-9,1,6,-7,-2,2,-1,-8,-11,-6
3,-5,-9,1,7,-7,-3,2,-2,-9,-12,-6
2,-6,-8,2,6,-7,-3,2,-1,-9,-12,-6
1,-6,-7,3,4,-7,-3,3,-1,-8,-11,-6
0,-7,-7,3,3,-6,-2,3,0,-8,-11,-6
-1,-7,-6,4,3,-6,-2,3,0,-8,-11,-6
-1,-7,-6,4,2,-6,-2,3,0,-7,-11,-5
-1,-7,-6,4,2,-6,-2,3,0,-7,-11,-5
-2,-8,-6,5,2,-7,-3,3,0,-7,-11,-5
-3,-8,-5,6,1,-7,-3,4,1,-6,-11,-5
-5,-8,-4,7,0,-6,-2,4,1,-6,-10,-5
-4,-8,-4,6,1,-6,-2,4,1,-6,-10,-5
-3,-8,-5,5,2,-6,-1,4,1,-6,-10,-5
-3,-8,-5,5,2,-6,0,3,1,-6,-10,-5
-3,-8,-5,5,1,-6,0,3,1,-6,-10,-5
-3,-8,-5,5,1,-6,0,2,1,-6,-10,-5
-3,-8,-5,4,2,-6,0,3,2,-5,-9,-4
-3,-7,-5,4,1,-6,1,3,2,-5,-9,-4
-5,-7,-3,5,0,-5,1,3,2,-4,-9,-4
-7,-7,-1,7,-2,-4,1,4,3,-4,-8,-3
-10,-7,2,8,-5,-3,2,4,4,-3,-8,-2
-11,-8,3,9,-6,-3,2,4,4,-3,-7,-2
-8,-8,0,8,-3,-4,1,3,3,-4,-8,-3
-4,-8,-4,6,1,-6,0,2,2,-5,-10,-4
0,-8,-8,4,4,-7,-1,1,1,-6,-10,-4
1,-8,-9,3,6,-8,-2,0,1,-7,-11,-5
1,-8,-9,3,5,-8,-2,0,0,-7,-11,-5
0,-7,-8,3,5,-8,-1,0,0,-7,-11,-5
0,-7,-8,3,4,-8,-1,0,0,-7,-12,-6
-1,-7,-7,3,4,-8,-1,0,0,-7,-12,-6
-2,-8,-7,4,3,-7,0,0,0,-7,-11,-6
-2,-8,-6,5,2,-7,1,0,0,-7,-11,-6
-3,-8,-6,6,2,-7,1,0,1,-7,-10,-5
-3,-8,-6,6,1,-7,2,0,1,-6,-10,-5
-3,-8,-6,5,1,-7,3,0,1,-6,-10,-4
-3,-9,-6,5,1,-7,3,0,1,-7,-10,-4
-3,-9,-7,5,2,-8,3,0,0,-7,-11,-5
-2,-9,-7,5,3,-8,3,0,0,-7,-11,-5
-2,-9,-7,4,3,-8,4,0,0,-7,-11,-5
-2,-9,-7,4,3,-8,5,0,1,-7,-11,-5
-3,-9,-7,5,2,-8,6,0,1,-7,-11,-5
-3,-9,-6,6,1,-8,7,0,1,-7,-11,-5
-3,-9,-6,6,1,-8,7,0,1,-7,-11,-5
-3,-9,-6,6,2,-8,8,0,1,-7,-11,-5
-3,-9,-7,6,2,-8,8,0,1,-7,-11,-5
-4,-10,-6,7,1,-8,8,0,0,-7,-11,-5
-8,-10,-3,9,-2,-7,9,1,1,-7,-11,-5
-10,-11,0,10,-4,-6,10,1,1,-6,-10,-4
-10,-11,-1,10,-4,-7,9,1,0,-7,-11,-5
-7,-12,-5,9,-1,-9,8,0,0,-8,-13,-6
-4,-12,-8,8,2,-10,7,-1,-1,-9,-14,-8
-2,-13,-10,8,4,-11,6,0,0,-9,-15,-9
-2,-14,-12,8,5,-12,7,2,2,-9,-15,-10
-2,-15,-13,8,6,-13,7,7,5,-8,-15,-11
-2,-16,-13,9,6,-14,7,12,9,-6,-16,-13
-2,-16,-14,9,6,-14,9,16,13,-3,-16,-14
-2,-16,-13,9,6,-14,9,18,17,0,-15,-14
-3,-15,-12,9,5,-13,9,19,21,5,-12,-13
-3,-13,-10,8,4,-12,10,21,26,12,-7,-10
-3,-11,-8,7,3,-10,9,23,32,21,0,-6
-2,-8,-6,5,3,-7,7,24,39,32,10,0
0,-3,-5,2,3,-4,4,22,44,44,22,8
3,2,-2,-2,3,0,0,16,44,56,36,18
6,7,0,-7,3,4,-3,6,40,67,51,30
10,12,2,-12,4,7,-8,-5,32,76,66,43
13,16,2,-15,5,9,-14,-17,19,82,83,57
17,20,3,-19,7,12,-19,-31,0,85,100,72
21,25,3,-23,8,14,-24,-46,-21,85,117,89
26,30,4,-27,11,17,-31,-61,-44,83,136,107
32,35,3,-33,14,19,-39,-78,-66,81,157,128
38,41,3,-40,18,22,-49,-96,-88,79,181,151
45,48,3,-47,21,25,-59,-115,-108,78,205,174
51,56,4,-54,23,30,-70,-136,-126,76,228,196
56,63,6,-60,25,34,-80,-155,-143,73,248,216
60,69,8,-65,26,39,-88,-172,-159,67,262,232
61,73,10,-67,25,42,-94,-186,-173,54,264,240
58,73,14,-65,22,44,-96,-196,-188,34,250,235
51,72,20,-60,16,46,-94,-203,-202,6,220,221
45,69,23,-56,11,46,-92,-211,-219,-28,180,199
41,65,23,-53,9,44,-91,-222,-240,-69,128,169
38,58,19,-49,9,39,-90,-234,-262,-115,68,130
33,47,13,-41,10,30,-89,-245,-281,-159,6,88
26,33,7,-30,10,20,-88,-252,-295,-198,-47,49
16,17,1,-16,8,9,-85,-251,-301,-225,-92,12
6,0,-5,-2,6,-2,-77,-240,-295,-238,-125,-20
-1,-14,-12,8,6,-13,-67,-222,-280,-240,-145,-44
-5,-24,-18,15,7,-21,-58,-203,-262,-233,-153,-61
-8,-30,-22,19,8,-26,-51,-184,-243,-223,-156,-72
-11,-34,-23,22,7,-29,-47,-167,-224,-211,-154,-80
-14,-37,-23,25,4,-30,-44,-151,-204,-196,-150,-84
-17,-38,-21,27,2,-30,-42,-136,-183,-180,-143,-86
-19,-38,-19,28,0,-28,-39,-120,-162,-161,-133,-83
-21,-36,-14,29,-4,-24,-35,-104,-140,-141,-119,-78
-23,-31,-7,28,-8,-19,-32,-88,-118,-121,-104,-70
-24,-26,-1,25,-11,-13,-27,-74,-98,-101,-90,-61
-24,-20,3,22,-13,-8,-23,-61,-81,-85,-77,-53
-24,-16,7,20,-15,-4,-20,-49,-66,-71,-66,-46
-25,-12,11,18,-17,0,-16,-38,-52,-58,-57,-40
-25,-10,14,17,-19,2,-12,-28,-39,-47,-49,-34
-25,-8,16,16,-20,4,-11,-21,-29,-37,-42,-30
-22,-6,16,14,-19,5,-10,-15,-21,-29,-36,-26
-19,-4,15,12,-17,6,-11,-11,-15,-23,-30,-22
-14,-1,13,8,-14,6,-12,-7,-10,-17,-25,-18
-8,1,10,3,-9,6,-13,-4,-6,-13,-21,-15
-3,3,7,0,-5,5,-14,-2,-3,-10,-19,-13
-3,5,7,-1,-5,6,-14,0,0,-7,-16,-11
-4,5,8,-1,-6,6,-13,3,3,-5,-15,-10
-4,5,8,0,-6,6,-13,4,6,-3,-14,-9
-4,5,7,0,-5,6,-12,6,8,-1,-13,-9
-4,5,7,0,-5,6,-12,7,10,0,-11,-8
-4,5,8,0,-5,6,-12,8,11,2,-10,-7
-4,4,8,0,-5,6,-11,9,11,3,-9,-6
-3,4,8,0,-5,6,-11,9,12,3,-8,-6
-2,5,7,-1,-4,6,-10,10,13,4,-7,-5
-2,4,6,-1,-4,5,-10,10,14,4,-7,-5
-2,3,5,0,-3,4,-10,11,15,4,-7,-5
-3,2,5,0,-3,4,-10,11,16,5,-7,-5
-4,2,5,1,-3,3,-10,12,17,6,-7,-5
-4,1,5,1,-3,3,-10,13,17,6,-6,-5
-4,1,6,2,-4,3,-10,14,17,7,-6,-5
-4,1,5,2,-4,3,-11,14,17,7,-5,-4
-4,1,5,2,-4,3,-11,15,17,7,-5,-4
-4,1,4,2,-4,2,-12,15,18,7,-5,-4
-4,1,4,2,-4,2,-12,16,19,7,-4,-3
-4,1,4,2,-4,2,-12,16,20,8,-4,-3
-4,0,3,2,-4,2,-12,17,20,9,-4,-3
-5,0,3,3,-4,1,-12,17,21,9,-3,-3
-5,-1,3,3,-4,1,-12,17,21,9,-3,-3
-5,-1,3,3,-3,0,-13,17,20,9,-3,-3
-4,-2,1,3,-2,0,-13,17,20,9,-4,-3
-3,-2,0,3,-1,-1,-14,17,20,8,-4,-4
-1,-2,-1,2,0,-2,-14,17,19,8,-5,-4
0,-2,-3,1,1,-2,-15,17,19,7,-5,-5
0,-3,-4,1,2,-3,-15,17,19,7,-6,-5
0,-4,-4,2,2,-4,-16,17,19,7,-6,-6
-1,-4,-3,2,2,-4,-16,17,19,7,-6,-6
0,-4,-3,2,2,-4,-16,17,19,7,-6,-6
0,-4,-3,2,2,-4,-16,18,19,7,-6,-6
0,-4,-3,2,2,-4,-16,18,19,7,-6,-6
-1,-4,-3,2,2,-3,-16,19,19,7,-6,-6
-1,-4,-3,3,1,-3,-15,19,19,8,-6,-6
-2,-5,-3,3,1,-4,-15,19,20,8,-7,-6
-2,-5,-3,4,1,-4,-15,19,20,7,-7,-7
-2,-6,-3,4,1,-5,-14,19,20,7,-7,-7
-2,-6,-3,5,1,-5,-14,20,20,7,-7,-7
-2,-5,-3,4,1,-5,-13,21,21,8,-7,-7
-1,-4,-3,3,1,-4,-12,22,21,8,-7,-7
0,-4,-3,2,2,-4,-11,22,22,8,-7,-7
0,-4,-3,2,2,-4,-10,23,22,8,-7,-7
0,-4,-3,2,2,-4,-9,23,23,9,-7,-7
0,-4,-3,2,3,-4,-8,24,24,9,-7,-7
0,-4,-4,2,3,-4,-7,25,24,9,-7,-8
0,-4,-3,3,3,-4,-6,25,25,9,-7,-8
-2,-5,-2,4,1,-4,-4,26,26,9,-7,-8
-4,-5,-1,5,0,-3,-3,27,27,10,-6,-7
-6,-5,0,6,-3,-3,-1,29,29,11,-5,-7
-9,-5,3,7,-6,-1,0,31,30,13,-4,-6
-10,-5,4,8,-7,-1,2,32,31,14,-4,-5
-7,-5,1,6,-4,-2,2,31,31,13,-4,-6
-2,-5,-2,4,0,-3,1,31,30,13,-5,-7
0,-5,-4,3,2,-4,1,31,30,12,-5,-8
1,-5,-6,2,4,-5,1,31,31,12,-6,-9
1,-5,-7,2,4,-5,1,31,31,12,-7,-9
0,-5,-7,2,4,-6,0,31,32,12,-7,-10
0,-5,-7,2,4,-6,0,32,33,13,-7,-10
0,-5,-7,3,3,-6,0,33,35,14,-7,-10
-1,-5,-5,3,2,-6,0,34,36,15,-7,-10
-2,-5,-3,4,1,-5,0,36,38,16,-6,-9
-3,-5,-1,5,0,-4,0,38,40,18,-5,-8
-4,-5,0,5,-1,-3,1,40,42,18,-4,-8
-4,-5,0,5,-1,-3,1,41,43,19,-4,-8
-4,-5,-2,5,0,-4,1,41,43,19,-5,-9
-3,-5,-3,4,0,-4,1,42,44,19,-5,-10
-3,-5,-3,4,0,-4,2,43,46,20,-5,-10
-3,-4,-1,4,0,-3,3,46,48,21,-5,-9
-3,-4,-1,4,0,-2,4,48,50,22,-4,-9
-2,-4,-1,3,0,-3,4,49,52,23,-5,-10
-2,-4,-3,3,1,-4,4,50,52,22,-6,-11
-1,-5,-5,3,3,-5,3,50,53,22,-7,-12
0,-5,-7,2,4,-6,3,50,53,22,-7,-12
0,-4,-7,2,4,-6,4,52,55,23,-7,-12
0,-4,-5,2,3,-5,5,54,57,24,-7,-12
0,-3,-4,1,3,-4,6,56,59,25,-6,-12
0,-3,-4,1,2,-3,7,58,61,26,-6,-12
0,-3,-3,2,2,-3,8,60,62,26,-6,-13
-1,-4,-2,2,1,-3,9,61,63,27,-7,-13
-1,-4,-2,2,1,-3,10,62,64,27,-7,-13
-1,-4,-2,2,1,-3,11,64,65,28,-7,-13
-2,-4,-2,2,1,-3,13,65,66,28,-7,-14
-2,-4,-2,2,1,-3,14,65,67,29,-7,-14
-2,-4,-2,2,1,-3,14,66,68,29,-8,-15
-1,-4,-3,2,1,-3,15,66,69,29,-9,-15
-1,-4,-3,2,2,-3,15,67,69,29,-10,-16
-2,-4,-2,3,1,-3,16,68,70,29,-10,-16
-4,-4,0,4,-1,-2,17,69,71,29,-9,-15
-5,-4,0,4,-1,-2,17,70,71,29,-9,-15
-4,-4,-1,4,0,-3,17,69,71,29,-10,-16
-3,-5,-3,4,0,-4,17,69,70,28,-11,-16
-2,-5,-5,4,2,-4,17,69,70,28,-12,-17
0,-5,-6,3,3,-5,17,68,70,27,-12,-18
0,-5,-7,3,4,-5,17,68,70,27,-13,-19
1,-5,-7,2,4,-5,18,69,71,27,-13,-19
2,-4,-7,1,5,-5,18,69,71,27,-13,-19
2,-3,-6,1,5,-5,17,69,70,27,-13,-19
1,-3,-5,1,4,-4,17,68,70,27,-13,-18
0,-3,-4,1,2,-4,17,68,70,27,-13,-18
-1,-3,-3,2,1,-3,15,67,69,26,-14,-18
-1,-3,-3,2,1,-3,14,66,69,26,-14,-18
-1,-2,-2,2,0,-2,13,66,68,26,-14,-18
-2,-2,-1,2,0,-1,12,65,68,26,-14,-17
-3,-1,1,2,-1,0,11,64,67,26,-13,-16
-4,-1,2,2,-2,0,11,63,66,26,-13,-16
-3,0,2,1,-2,1,10,61,64,26,-12,-15
-4,1,3,1,-3,2,10,60,63,27,-11,-14
-5,1,5,2,-5,3,9,59,62,27,-10,-13
-5,1,6,2,-6,4,8,57,60,27,-9,-12
-2,1,3,1,-3,2,6,53,56,25,-9,-12
1,1,-1,-1,1,1,4,50,52,22,-10,-12
4,2,-3,-2,3,0,3,46,48,21,-10,-12
4,2,-3,-3,4,0,3,43,45,20,-9,-11
3,2,-1,-3,3,0,2,40,43,19,-8,-9
3,3,0,-3,2,1,2,37,40,19,-7,-7
3,4,0,-4,2,2,2,35,38,18,-5,-5
4,5,0,-5,2,3,2,33,36,18,-4,-4
4,6,1,-5,1,4,3,32,34,18,-3,-2
3,7,3,-5,0,5,4,30,32,17,-1,0
3,7,4,-5,0,6,5,29,29,16,0,1
2,7,4,-4,0,6,6,27,27,15,0,2
2,7,5,-4,-1,6,7,25,24,14,0,2
2,7,5,-5,-1,7,7,23,22,13,1,3
1,8,6,-5,-1,7,8,22,21,13,1,3
1,8,7,-5,-2,8,9,20,19,12,1,4
0,9,7,-5,-3,8,9,19,17,11,1,4
1,9,7,-5,-3,8,9,17,15,10,1,5
1,10,8,-5,-3,8,9,15,13,9,1,5
0,10,9,-4,-4,9,9,13,11,8,1,6
-2,9,10,-3,-5,9,9,12,10,7,1,6
-4,9,12,-2,-7,10,9,10,8,6,1,6
-5,8,12,-2,-7,10,9,8,6,5,1,6
-4,8,10,-2,-6,9,7,5,4,3,0,5
-2,7,8,-3,-5,8,6,3,1,2,-1,4
-1,7,8,-3,-4,8,5,2,0,1,-1,4
-1,8,9,-3,-5,9,5,1,-1,0,-2,4
-1,8,9,-3,-5,9,4,1,-2,0,-2,4
-1,8,9,-4,-5,9,4,0,-3,0,-2,4
-1,8,9,-4,-4,9,3,0,-3,-1,-2,4
-1,9,9,-5,-4,9,3,0,-3,-1,-2,4
-1,10,10,-4,-5,9,2,0,-3,-2,-2,4
-2,9,10,-4,-6,9,2,0,-4,-2,-2,4
-4,9,11,-2,-7,9,1,0,-4,-2,-2,4
-5,8,12,-1,-8,9,1,0,-4,-2,-3,4
-6,7,12,-1,-8,9,1,0,-5,-2,-3,3
-5,6,11,-1,-7,8,1,0,-5,-3,-4,3
-5,5,10,-1,-7,8,1,0,-6,-4,-4,2
-5,5,9,0,-7,7,2,0,-6,-4,-4,2
-5,4,9,0,-6,7,2,0,-6,-4,-4,2
-3,4,8,-1,-5,6,2,0,-6,-4,-4,2
-2,5,7,-2,-4,6,1,1,-6,-4,-4,2
-2,5,8,-1,-5,6,1,1,-6,-4,-3,3
-3,4,8,0,-5,6,1,2,-6,-4,-4,3
-3,3,7,0,-4,5,1,2,-6,-5,-4,2
-1,3,4,-1,-2,3,0,1,-7,-6,-5,2
1,3,2,-2,0,2,0,1,-7,-6,-6,1
1,2,0,-2,1,2,0,1,-7,-6,-6,1
1,2,0,-1,0,2,0,2,-7,-6,-6,1
0,1,0,-1,0,1,0,2,-7,-6,-6,1
1,1,0,-1,0,0,0,2,-7,-6,-6,0
1,1,0,-1,1,0,0,2,-7,-6,-7,0
1,0,-1,-1,1,0,1,2,-7,-6,-7,0
2,0,-1,-1,2,0,1,2,-6,-6,-7,0
2,0,-1,-1,2,0,2,2,-6,-6,-7,0
1,0,-1,0,2,-1,2,3,-6,-6,-7,0
1,0,-1,0,1,-1,3,3,-6,-6,-7,0
0,-1,-2,0,1,-1,3,3,-6,-6,-7,0
0,-1,-2,0,1,-1,4,3,-6,-6,-7,0
0,-1,-2,0,1,-1,5,4,-6,-6,-7,0
0,-2,-2,1,1,-1,6,4,-5,-6,-7,0
-1,-2,-1,1,1,-2,7,4,-5,-6,-7,0
-1,-3,-1,1,1,-2,7,4,-5,-6,-7,0
-1,-3,-2,2,1,-3,7,4,-5,-7,-8,-1
-1,-4,-2,2,1,-3,7,4,-5,-7,-8,-1
-1,-4,-2,2,0,-3,7,4,-5,-7,-8,-1
-3,-4,-1,3,0,-3,7,5,-4,-6,-8,-1
-3,-4,-1,4,-1,-2,7,5,-4,-6,-8,-1
-2,-3,-2,3,0,-3,7,5,-4,-6,-9,-2
-1,-4,-2,3,1,-4,6,5,-4,-7,-9,-2
-2,-4,-2,3,0,-4,7,6,-4,-7,-9,-2
-3,-4,-1,3,0,-3,8,7,-3,-6,-8,-2
-2,-3,-1,2,1,-2,8,7,-3,-6,-8,-2
-1,-4,-3,2,2,-3,8,6,-3,-7,-9,-2
-1,-5,-4,3,2,-4,7,6,-4,-7,-9,-3
-1,-5,-4,4,2,-5,6,6,-4,-8,-10,-3
0,-5,-5,3,2,-5,6,6,-4,-8,-10,-3
0,-5,-5,3,3,-5,6,6,-4,-7,-9,-3
0,-5,-5,3,2,-5,6,7,-3,-7,-9,-2
-1,-6,-4,4,2,-5,7,7,-2,-6,-9,-2
-1,-6,-4,3,2,-5,8,8,-1,-6,-9,-2
-1,-5,-5,3,2,-5,8,8,-1,-5,-9,-2
-1,-5,-5,3,2,-5,9,9,0,-5,-9,-2
-2,-5,-4,3,1,-5,9,9,0,-5,-9,-2
-2,-5,-4,4,1,-5,10,9,0,-5,-9,-3
-2,-5,-3,4,1,-5,10,9,0,-5,-8,-3
-3,-6,-3,5,1,-5,11,9,0,-5,-8,-3
-3,-6,-3,5,0,-5,12,9,0,-5,-8,-3
-4,-7,-3,5,0,-5,13,9,0,-5,-8,-3
-4,-7,-3,5,0,-5,14,9,0,-4,-8,-3
-5,-6,-2,5,-1,-4,15,9,1,-4,-7,-2
-9,-6,1,7,-5,-2,16,10,2,-2,-6,-1
-12,-7,4,9,-8,-1,17,10,2,-1,-5,0
-11,-7,3,9,-7,-2,17,10,2,-2,-6,-1
-6,-7,-1,6,-1,-4,14,8,0,-3,-7,-2
-1,-7,-6,4,3,-6,12,7,-1,-5,-9,-4
0,-7,-7,3,4,-6,10,6,-1,-5,-9,-4
0,-7,-7,4,4,-6,10,6,-1,-5,-9,-3
-1,-7,-7,4,4,-7,9,6,-1,-5,-9,-4
-1,-7,-7,4,4,-7,8,6,-1,-5,-9,-4
-1,-7,-6,4,3,-7,7,6,-1,-5,-9,-4
-2,-7,-6,5,3,-7,7,7,-1,-5,-9,-4
-1,-7,-6,4,3,-7,7,7,-1,-5,-9,-4
0,-7,-7,4,4,-7,7,7,-1,-5,-9,-4
0,-7,-7,4,4,-7,7,7,-1,-5,-8,-3
-1,-7,-5,4,3,-6,8,7,0,-4,-8,-3
-2,-7,-5,4,2,-6,9,7,0,-4,-8,-3
-2,-7,-4,4,2,-6,9,7,0,-4,-8,-3
-3,-7,-4,4,1,-6,10,7,0,-4,-8,-3
-3,-7,-4,5,1,-6,10,7,0,-4,-8,-3
-3,-7,-4,5,1,-6,11,7,0,-4,-8,-3
-4,-8,-4,5,1,-6,11,7,0,-4,-8,-3
-4,-9,-4,6,1,-6,12,7,0,-4,-7,-3
-4,-9,-4,6,1,-6,14,7,0,-4,-7,-2
-5,-9,-4,6,1,-6,15,8,0,-4,-7,-2
-5,-9,-4,6,0,-6,17,8,0,-5,-7,-2
-4,-9,-5,6,1,-6,18,8,0,-5,-8,-3
-4,-9,-6,6,2,-7,19,8,-1,-5,-8,-3
-4,-9,-6,6,2,-8,20,8,0,-5,-8,-4
-4,-9,-6,7,2,-8,22,9,0,-5,-9,-4
-4,-10,-7,7,2,-9,23,11,1,-5,-10,-5
-4,-12,-8,8,2,-10,25,14,3,-4,-11,-7
-5,-14,-9,10,2,-11,27,18,7,-3,-12,-9
-5,-15,-10,10,3,-12,29,22,10,-2,-13,-11
-3,-15,-11,10,4,-13,30,24,13,0,-13,-12
-2,-14,-11,9,5,-13,31,26,17,4,-11,-12
-2,-12,-10,8,4,-12,31,28,23,11,-7,-10
-2,-10,-8,7,3,-10,31,31,29,19,0,-6
-1,-8,-7,5,3,-8,30,32,36,29,8,0
1,-5,-6,2,4,-6,27,31,42,41,20,7
4,0,-5,-2,4,-3,23,25,44,53,33,17
6,4,-2,-6,4,1,19,16,42,65,48,29
8,9,0,-9,4,4,14,5,36,75,64,41
10,12,1,-12,5,6,9,-7,24,82,80,55
14,16,0,-15,7,8,3,-22,6,86,97,69
20,21,0,-20,10,10,-2,-38,-15,87,113,85
25,26,0,-25,14,12,-9,-55,-38,87,132,102
30,31,0,-31,15,15,-18,-72,-59,88,154,123
34,37,2,-36,16,19,-27,-91,-79,89,178,146
41,45,2,-44,19,23,-38,-111,-99,90,203,168
52,53,0,-53,26,26,-50,-134,-119,88,224,189
64,60,-5,-63,35,28,-63,-157,-138,84,241,207
72,66,-7,-69,40,29,-73,-176,-155,78,252,220
75,69,-6,-72,42,31,-79,-190,-171,65,251,226
75,69,-6,-72,41,31,-81,-201,-187,43,233,220
72,66,-6,-69,39,30,-79,-210,-204,12,200,202
67,62,-5,-65,37,28,-77,-220,-223,-24,156,179
60,57,-3,-59,32,27,-74,-232,-244,-66,106,151
51,50,-1,-51,26,24,-70,-245,-266,-110,51,116
41,40,0,-40,21,20,-67,-257,-286,-153,-4,80
31,28,-2,-29,17,13,-64,-265,-301,-190,-53,45
21,15,-5,-18,13,5,-58,-265,-307,-216,-92,13
11,1,-9,-5,10,-5,-48,-256,-302,-229,-122,-16
2,-13,-14,6,9,-15,-37,-239,-289,-231,-140,-40
-4,-24,-19,14,8,-22,-27,-220,-271,-226,-149,-57
-9,-32,-23,20,7,-27,-18,-202,-252,-218,-152,-69
-12,-37,-24,24,6,-31,-13,-185,-233,-206,-151,-77
-16,-39,-24,27,4,-32,-9,-168,-212,-192,-147,-82
-19,-40,-21,29,2,-31,-6,-150,-190,-176,-140,-83
-22,-40,-19,30,-1,-30,-3,-132,-168,-157,-130,-81
-24,-38,-14,30,-4,-27,0,-114,-145,-137,-117,-75
-25,-33,-8,29,-8,-21,4,-97,-122,-116,-102,-67
-25,-28,-3,27,-10,-16,8,-81,-102,-97,-88,-59
-25,-23,2,24,-13,-11,12,-67,-84,-81,-75,-51
-26,-19,7,23,-15,-6,16,-54,-68,-67,-64,-44
-26,-15,10,21,-17,-2,20,-42,-53,-55,-55,-37
-25,-12,13,19,-18,0,23,-32,-41,-44,-47,-31
-24,-9,14,17,-18,2,25,-24,-30,-34,-40,-27
-21,-7,14,14,-17,3,24,-18,-22,-26,-34,-23
-18,-5,14,12,-15,3,22,-13,-16,-20,-29,-20
-14,-3,13,9,-13,4,19,-9,-11,-14,-24,-17
-9,0,10,5,-9,4,15,-7,-7,-11,-21,-15
-4,1,6,1,-4,3,12,-6,-5,-10,-19,-13
-2,3,5,0,-3,4,9,-5,-3,-8,-17,-11
-4,4,7,0,-5,5,8,-3,0,-5,-15,-9
-5,5,10,0,-7,7,7,-1,2,-2,-13,-8
-5,5,10,0,-7,7,6,0,4,0,-11,-7
-4,5,10,0,-6,7,5,1,6,2,-10,-6
-4,5,10,0,-7,7,4,2,7,3,-9,-6
-4,6,11,0,-7,8,4,3,8,4,-8,-5
-4,6,10,-1,-7,8,3,3,8,4,-8,-5
-3,6,9,-1,-6,7,1,3,9,3,-8,-5
-3,5,7,0,-5,6,0,4,9,3,-8,-5
-3,3,6,0,-4,5,-1,4,10,3,-8,-6
-2,2,4,0,-3,3,-2,4,11,4,-8,-6
-2,2,4,0,-3,3,-2,5,12,6,-8,-6
-2,2,5,0,-4,4,-2,6,13,7,-7,-5
-3,2,6,0,-4,4,-2,7,13,8,-6,-5
-4,2,7,1,-5,4,-2,7,13,8,-6,-4
-5,1,7,1,-5,4,-2,8,14,8,-5,-4
-4,1,6,1,-4,4,-2,8,14,8,-5,-3
-4,1,6,1,-4,4,-2,10,16,9,-4,-3
-5,1,6,1,-5,4,-2,11,17,10,-4,-3
-4,0,5,2,-4,3,-3,11,17,10,-4,-3
-1,0,1,1,-1,0,-5,10,16,9,-5,-4
1,0,-1,0,1,-1,-7,10,15,8,-6,-5
1,0,-1,0,2,-1,-8,10,15,8,-6,-5
0,0,0,0,1,0,-8,11,16,9,-5,-4
0,0,0,0,0,0,-9,12,16,9,-4,-4
1,0,-1,0,1,0,-10,12,17,9,-4,-4
2,0,-2,-1,2,-1,-10,13,17,9,-4,-4
2,-1,-2,-1,2,-1,-10,13,17,9,-4,-4
0,-1,-1,0,1,-1,-10,14,18,10,-4,-3
0,-1,0,1,0,-1,-10,14,18,11,-3,-3
0,-1,0,1,0,-1,-11,14,18,11,-3,-3
0,-1,0,1,1,-1,-11,14,17,11,-3,-3
0,-2,-1,1,1,-1,-11,14,17,10,-4,-4
-1,-3,-1,1,1,-2,-11,14,17,10,-4,-4
-1,-3,-1,1,0,-2,-11,15,17,10,-4,-4
-2,-3,-1,2,0,-2,-10,15,18,10,-4,-4
-2,-4,-1,2,0,-2,-11,15,18,9,-5,-5
-2,-4,-2,3,0,-3,-12,15,18,9,-5,-5
-3,-4,-2,3,0,-3,-12,16,18,9,-5,-6
-2,-4,-2,3,0,-4,-13,16,18,9,-5,-6
-2,-4,-2,3,0,-4,-14,16,18,9,-5,-6
-3,-5,-1,3,0,-3,-15,17,19,10,-5,-6
-3,-5,0,4,-1,-3,-15,18,20,10,-5,-6
-3,-5,0,3,-1,-3,-16,18,20,11,-5,-6
-2,-4,-1,3,0,-3,-16,19,20,11,-5,-6
-2,-4,-1,3,0,-3,-16,20,21,11,-5,-6
-1,-4,-2,3,0,-3,-16,20,21,11,-5,-6
0,-4,-3,2,1,-3,-16,21,21,11,-5,-6
0,-4,-3,2,2,-3,-16,22,22,11,-5,-6
0,-4,-4,2,2,-4,-16,22,22,11,-5,-7
0,-5,-4,2,2,-4,-15,23,23,11,-6,-7
-2,-6,-4,3,1,-4,-14,24,24,11,-6,-7
-3,-5,-2,3,0,-3,-12,26,25,12,-5,-7
-5,-5,0,4,-2,-2,-10,28,27,14,-5,-7
-6,-5,0,5,-3,-2,-8,29,28,14,-4,-7
-6,-5,0,6,-3,-2,-7,29,29,15,-4,-7
-6,-5,0,6,-2,-2,-6,30,30,15,-4,-7
-5,-5,0,5,-2,-2,-5,31,30,16,-4,-7
-4,-4,-1,4,-1,-2,-4,32,31,16,-4,-7
-3,-4,-1,3,-1,-2,-2,34,32,17,-4,-7
-3,-5,-1,3,0,-3,-1,35,32,17,-4,-8
-2,-5,-3,3,1,-4,0,36,33,17,-5,-9
0,-5,-5,2,3,-5,0,37,33,17,-5,-9
1,-4,-6,1,4,-5,0,38,34,17,-5,-10
1,-4,-6,1,4,-4,1,39,36,18,-5,-10
1,-3,-5,1,3,-4,2,41,37,19,-5,-10
0,-3,-4,1,3,-4,4,43,39,20,-5,-10
0,-3,-4,1,2,-4,5,45,41,20,-5,-9
-1,-3,-2,1,1,-3,7,47,43,22,-4,-9
-3,-3,0,3,-1,-2,10,49,45,23,-4,-8
-5,-3,2,4,-3,-1,13,51,47,25,-3,-8
-6,-3,3,5,-5,0,16,53,48,26,-3,-8
-8,-3,4,6,-6,0,18,55,50,27,-2,-8
-9,-3,5,6,-7,1,19,56,52,27,-2,-8
-8,-3,4,6,-6,0,20,57,53,27,-3,-9
-4,-3,0,4,-2,-1,20,57,53,26,-4,-10
0,-3,-3,2,2,-4,20,57,53,25,-6,-12
1,-3,-5,1,3,-5,20,57,53,25,-7,-13
2,-3,-5,1,4,-5,21,58,55,26,-7,-13
2,-2,-4,0,4,-4,23,60,57,27,-7,-13
2,-1,-4,0,3,-3,24,61,59,28,-6,-13
1,-1,-3,0,3,-3,24,62,60,28,-6,-13
1,0,-3,0,2,-2,25,63,61,29,-6,-13
1,0,-2,0,2,-2,25,64,62,29,-6,-13
0,-1,-2,0,1,-2,25,65,63,29,-6,-14
0,-1,-1,1,0,-2,26,66,64,30,-6,-14
0,-1,-1,1,0,-2,26,67,64,30,-7,-14
0,0,-1,1,1,-2,27,68,65,30,-7,-14
0,0,-2,1,1,-2,27,68,65,30,-8,-15
0,-1,-2,1,1,-2,27,69,65,30,-8,-15
0,-1,-2,1,1,-2,27,69,66,30,-9,-16
0,-1,-1,1,1,-2,27,69,66,30,-9,-16
0,-1,-1,1,0,-2,28,69,66,30,-9,-16
-1,-2,-1,2,0,-2,28,69,66,29,-10,-16
-1,-2,-1,2,0,-3,29,69,66,29,-10,-17
-1,-3,-1,2,0,-3,30,69,66,29,-11,-17
-1,-3,-1,2,0,-3,31,69,66,29,-11,-17
-2,-3,-2,3,0,-3,32,68,66,28,-11,-18
-2,-4,-2,3,0,-3,32,68,65,28,-12,-18
-2,-4,-2,3,0,-3,31,67,65,28,-12,-18
-1,-3,-2,2,1,-2,31,67,64,28,-12,-18
0,-2,-2,1,1,-2,31,67,64,28,-11,-17
0,-2,-2,0,1,-2,31,67,63,27,-11,-17
0,-2,-2,1,1,-2,31,65,62,27,-11,-17
0,-2,-2,1,0,-2,31,63,60,26,-12,-17
0,-2,-2,1,0,-1,31,61,58,26,-12,-17
0,-1,-2,0,1,-1,30,59,56,25,-12,-16
0,-1,-1,0,1,-1,30,56,55,25,-11,-16
0,-1,-1,0,0,-1,30,54,53,24,-11,-15
-1,-1,0,1,0,0,29,51,51,23,-11,-15
-1,0,0,0,-1,0,29,49,49,23,-10,-13
0,1,1,0,-1,1,28,46,46,23,-8,-11
0,1,1,-1,-1,2,27,44,44,22,-7,-10
0,1,2,0,-1,2,25,41,41,22,-5,-8
-1,1,3,0,-2,3,24,38,39,21,-4,-7
0,1,3,-1,-1,2,23,35,36,20,-3,-6
1,1,1,-2,0,1,23,32,33,18,-3,-6
1,1,0,-2,1,1,23,29,30,17,-3,-5
0,1,2,0,-1,1,23,27,28,16,-2,-4
-2,1,3,0,-3,2,23,25,26,15,-1,-2
-1,1,3,0,-2,2,22,23,23,14,-1,-1
0,1,2,-1,-1,2,21,20,21,13,0,-1
1,2,1,-2,0,2,21,17,18,12,0,0
2,3,2,-3,0,3,22,15,16,11,0,0
2,4,2,-4,0,3,22,13,14,10,1,1
2,4,2,-4,0,3,23,11,13,9,1,1
2,4,1,-3,1,2,24,10,11,7,1,1
3,4,0,-3,1,2,24,8,9,6,0,1
2,4,1,-3,0,2,25,7,7,5,0,2
-2,4,6,-1,-4,5,27,7,7,6,2,4
-6,4,11,0,-9,7,29,7,8,7,3,5
-8,4,13,1,-10,8,30,6,7,7,4,6
-5,4,11,0,-8,8,29,4,6,5,3,5
-1,5,8,-2,-4,6,28,2,4,4,2,4
0,5,6,-3,-2,6,26,1,3,3,1,4
0,5,5,-2,-2,5,24,0,1,2,1,4
-1,5,6,-1,-3,5,22,-1,0,1,1,3
-2,4,6,-1,-4,5,21,-3,-1,0,0,3
-3,4,7,-1,-4,5,20,-4,-2,0,0,3
-3,4,7,-1,-5,5,18,-5,-3,0,0,3
-3,5,8,-1,-5,6,17,-6,-3,-1,0,3
-3,5,8,-1,-5,6,15,-8,-4,-1,-1,3
-2,5,7,-2,-4,6,14,-9,-5,-2,-1,2
-2,6,7,-2,-4,6,12,-9,-6,-3,-2,2
-2,6,7,-2,-4,7,11,-9,-7,-4,-2,2
-2,6,8,-2,-5,7,9,-10,-7,-4,-2,2
-3,6,8,-1,-6,7,7,-11,-8,-4,-2,1
-4,5,8,-1,-6,6,5,-12,-8,-5,-3,1
-4,5,7,-1,-6,6,4,-12,-9,-5,-4,0
-5,4,8,0,-6,6,3,-12,-9,-5,-4,0
-6,4,8,0,-7,6,3,-12,-9,-5,-4,0
-6,4,9,1,-7,6,4,-12,-8,-5,-3,1
-5,5,9,0,-7,7,5,-11,-8,-5,-3,1
-4,4,9,0,-6,7,6,-11,-7,-5,-3,1
-4,4,8,0,-6,6,6,-11,-7,-5,-3,1
-3,4,7,0,-5,5,6,-10,-7,-5,-3,1
-3,4,7,-1,-5,5,6,-10,-6,-4,-3,1
-3,3,6,-1,-4,4,5,-9,-6,-4,-3,1
-2,3,4,-1,-2,3,4,-10,-7,-5,-3,0
0,2,3,-1,0,3,2,-10,-7,-5,-4,0
0,2,2,-1,0,2,1,-10,-7,-5,-4,0
1,2,1,-1,1,2,0,-10,-7,-6,-4,0
1,2,0,-1,1,1,-1,-9,-7,-6,-4,0
1,2,0,-1,1,1,-1,-9,-6,-5,-4,0
1,2,0,-1,1,1,0,-8,-5,-5,-4,0
1,1,0,-1,1,1,0,-8,-5,-5,-4,0
0,1,0,-1,1,0,0,-8,-4,-5,-4,0
0,0,0,0,0,0,0,-8,-4,-5,-4,0
-1,0,0,0,0,0,0,-7,-3,-4,-3,0
-2,-1,0,1,0,0,1,-7,-3,-4,-3,0
-2,-1,0,2,-1,0,1,-7,-3,-4,-3,0
-3,-2,0,2,-1,0,2,-7,-3,-4,-3,0
-3,-2,0,2,-1,-1,2,-7,-3,-4,-3,0
-3,-3,0,2,-1,-2,2,-7,-3,-4,-3,0
-3,-3,0,3,-1,-2,2,-6,-3,-4,-3,0
-4,-3,0,3,-2,-2,1,-6,-2,-4,-2,0
-4,-3,0,3,-1,-2,0,-5,-2,-4,-2,0
-4,-3,0,3,-1,-2,0,-5,-2,-4,-3,-1
-4,-3,-1,4,0,-2,0,-5,-2,-4,-3,-1
-4,-4,-1,4,0,-3,-1,-5,-2,-4,-4,-2
-3,-4,-2,4,0,-4,-2,-5,-3,-4,-4,-2
-3,-5,-3,4,1,-4,-3,-5,-3,-5,-5,-3
-3,-6,-3,4,1,-5,-3,-5,-3,-5,-5,-3
-3,-5,-3,4,1,-5,-4,-5,-3,-5,-5,-4
-2,-5,-3,3,1,-4,-4,-4,-2,-4,-5,-4
-1,-4,-3,2,2,-4,-4,-4,-2,-4,-5,-4
0,-4,-4,2,2,-4,-5,-3,-2,-4,-5,-4
0,-4,-4,2,2,-4,-7,-3,-1,-3,-5,-4
0,-4,-4,2,3,-4,-8,-3,-1,-3,-4,-4
0,-4,-4,2,3,-4,-9,-2,-1,-3,-4,-3
-1,-4,-3,2,2,-4,-9,-2,0,-3,-4,-3
-3,-5,-2,4,0,-4,-10,-1,0,-3,-3,-3
-5,-5,-1,5,-1,-4,-10,-1,0,-2,-3,-3
-6,-6,-1,6,-2,-4,-11,0,0,-2,-3,-3
-6,-6,-1,6,-1,-4,-11,0,0,-2,-3,-3
-5,-6,-1,6,-1,-4,-10,0,0,-1,-3,-3
-6,-6,0,6,-2,-3,-8,1,1,-1,-3,-2
-11,-6,4,8,-7,-1,-4,2,2,0,-1,-1
-15,-6,8,10,-11,0,0,3,3,1,0,0
-13,-6,6,10,-9,-1,2,2,3,0,0,-1
-7,-7,-1,7,-3,-4,3,0,1,-2,-3,-3
0,-7,-8,4,4,-8,4,-2,0,-4,-5,-6
2,-8,-11,4,7,-9,6,-3,-1,-5,-6,-7
1,-8,-10,4,6,-9,9,-3,-1,-5,-6,-6
1,-7,-9,3,6,-8,12,-2,-1,-4,-5,-5
2,-7,-9,2,7,-8,14,-2,0,-4,-5,-5
3,-7,-9,1,7,-8,15,-2,0,-4,-5,-5
2,-7,-9,2,6,-8,17,-2,0,-4,-4,-5
1,-6,-8,2,5,-8,18,-2,0,-4,-4,-4
0,-6,-7,3,4,-7,19,-2,0,-3,-4,-4
0,-6,-7,3,3,-7,19,-2,0,-3,-4,-4
-1,-6,-6,4,2,-6,18,-2,1,-3,-4,-4
-2,-7,-5,5,1,-6,17,-2,1,-3,-4,-4
-2,-7,-5,5,1,-7,16,-2,0,-3,-4,-4
-2,-8,-5,5,1,-7,15,-2,0,-3,-4,-4
-2,-8,-5,5,1,-6,16,-2,0,-3,-4,-4
-2,-7,-5,4,1,-6,18,-3,0,-3,-4,-4
-2,-7,-5,4,1,-6,19,-3,1,-4,-4,-4
-2,-7,-5,5,1,-6,21,-3,1,-4,-4,-4
-3,-7,-6,5,1,-6,21,-3,1,-4,-4,-4
-3,-7,-6,5,1,-6,20,-3,1,-4,-4,-4
-3,-7,-6,5,1,-6,18,-3,2,-4,-4,-4
-2,-8,-6,5,2,-7,16,-3,2,-4,-4,-4
-1,-8,-7,4,3,-7,13,-4,2,-5,-4,-4
-1,-8,-7,4,3,-8,11,-4,2,-5,-5,-4
-3,-8,-6,5,2,-7,10,-4,2,-4,-4,-4
-6,-8,-2,7,-1,-6,10,-3,3,-3,-3,-3
-10,-8,1,9,-5,-4,11,-1,4,-2,-2,-1
-12,-9,2,10,-7,-3,11,0,5,-2,-2,-1
-10,-9,0,9,-4,-5,11,0,4,-3,-3,-2
-6,-10,-4,8,0,-7,10,-1,3,-5,-4,-4
-3,-10,-7,7,2,-8,9,-2,3,-6,-5,-5
-2,-10,-8,6,3,-8,8,-2,2,-6,-5,-5
-2,-10,-8,6,3,-9,7,-2,2,-6,-5,-5
-3,-10,-8,7,3,-9,5,-3,2,-6,-5,-5
-3,-11,-9,7,3,-10,2,-3,2,-6,-6,-6
-3,-12,-9,7,3,-11,0,-2,4,-6,-7,-7
-5,-13,-8,8,2,-11,-2,1,7,-5,-8,-8
-5,-14,-9,9,2,-12,-4,5,11,-4,-9,-10
-5,-16,-11,10,3,-13,-5,9,15,-3,-9,-12
-6,-16,-11,11,3,-13,-7,12,18,0,-9,-13
-6,-16,-11,11,3,-13,-8,14,22,3,-8,-13
-5,-14,-11,10,3,-13,-9,15,26,8,-5,-11
-3,-12,-11,8,4,-12,-9,17,32,15,0,-8
0,-9,-10,5,5,-11,-10,19,38,24,7,-3
3,-5,-9,1,6,-8,-11,19,45,36,19,4
6,0,-7,-3,7,-4,-13,16,49,48,32,14
7,4,-4,-5,6,0,-15,8,49,60,47,25
8,7,-1,-7,5,3,-18,-1,45,70,62,37
11,11,0,-10,6,5,-22,-14,35,77,77,49
16,14,-1,-15,9,6,-27,-29,18,81,92,62
22,18,-3,-20,13,7,-34,-46,-2,82,107,76
27,22,-5,-25,17,7,-42,-64,-25,82,124,91
33,27,-7,-30,21,9,-51,-82,-47,82,143,110
40,33,-8,-37,25,12,-62,-100,-67,83,166,131
48,41,-8,-44,28,16,-73,-119,-85,85,190,154
54,49,-6,-51,30,21,-83,-139,-102,86,214,176
58,56,-2,-57,30,27,-93,-159,-117,86,235,197
61,63,1,-62,30,33,-101,-177,-132,83,251,215
65,68,2,-67,32,35,-107,-194,-148,74,255,224
71,70,-1,-70,37,33,-111,-208,-165,54,241,220
75,68,-6,-71,41,30,-112,-221,-184,26,211,204
74,64,-9,-69,41,27,-110,-232,-203,-9,170,182
68,59,-9,-63,38,25,-107,-244,-224,-47,124,156
58,52,-6,-55,32,23,-103,-257,-246,-89,72,124
46,43,-5,-44,25,20,-99,-268,-266,-131,18,89
35,31,-6,-33,21,13,-96,-278,-284,-171,-31,54
25,18,-7,-22,17,6,-92,-281,-295,-202,-74,21
14,4,-9,-10,13,-2,-84,-275,-296,-221,-107,-9
4,-10,-13,2,10,-12,-73,-260,-286,-228,-129,-35
-3,-22,-18,12,8,-20,-62,-240,-269,-225,-141,-54
-9,-31,-21,20,7,-27,-52,-220,-250,-218,-145,-67
-14,-37,-23,25,5,-30,-44,-201,-230,-207,-145,-75
-18,-40,-23,29,3,-31,-37,-181,-209,-194,-141,-81
-20,-42,-22,31,1,-31,-32,-162,-187,-178,-135,-83
-21,-42,-21,31,1,-31,-28,-144,-165,-161,-127,-82
-22,-40,-18,30,0,-29,-24,-126,-143,-142,-115,-78
-23,-36,-12,29,-4,-24,-18,-109,-121,-122,-101,-71
-24,-31,-5,28,-9,-18,-13,-92,-99,-102,-87,-63
-25,-25,1,26,-13,-12,-8,-76,-80,-85,-74,-55
-25,-20,5,24,-15,-8,-4,-62,-63,-71,-62,-47
-25,-17,7,21,-16,-4,-1,-49,-48,-59,-53,-40
-24,-14,9,19,-16,-2,1,-39,-35,-48,-45,-34
-23,-11,10,17,-16,0,3,-30,-24,-39,-38,-30
-21,-9,11,14,-15,2,5,-24,-16,-30,-32,-26
-19,-6,11,12,-15,3,5,-19,-9,-23,-26,-22
-16,-3,12,9,-14,4,6,-14,-3,-17,-21,-19
-13,-1,12,7,-13,5,7,-10,2,-11,-16,-15
-12,2,14,5,-13,7,8,-6,7,-7,-11,-12
-14,3,17,5,-16,10,10,-2,12,-3,-7,-8
-15,4,18,5,-17,11,10,0,16,0,-5,-6
-15,4,17,5,-16,11,10,1,18,0,-4,-6
-13,3,15,4,-13,9,8,1,18,1,-5,-7
-10,2,11,3,-10,7,6,1,18,1,-6,-8
-6,3,9,1,-7,6,4,0,17,1,-6,-9
-5,4,9,0,-7,6,3,1,18,2,-5,-8
-5,5,10,0,-7,7,3,3,19,3,-4,-7
-4,5,9,0,-7,7,3,5,20,3,-3,-6
-2,4,6,-1,-4,6,3,6,20,3,-3,-6
-1,4,4,-1,-3,5,4,6,21,3,-3,-6
-2,3,4,-1,-3,4,5,7,22,3,-3,-7
-2,2,4,0,-3,4,6,8,22,4,-3,-7
-3,2,4,0,-3,3,7,8,23,5,-3,-7
-3,1,5,1,-4,3,8,9,23,6,-3,-7
-3,2,5,1,-4,3,9,10,23,6,-2,-6
-2,3,4,0,-3,4,10,11,24,6,-1,-5
0,3,4,-1,-2,4,11,12,25,7,-1,-5
0,3,3,-1,-2,4,12,12,25,7,0,-4
-1,2,3,0,-2,4,13,13,26,8,0,-4
-2,1,3,0,-2,3,13,13,26,8,0,-4
-2,1,3,0,-2,3,13,13,26,8,0,-4
-2,1,3,0,-2,2,13,13,26,9,0,-5
-2,1,2,0,-2,2,13,13,26,9,0,-5
-2,0,2,1,-2,1,13,14,26,9,0,-5
-2,0,1,1,-2,0,14,14,26,9,0,-5
-3,-1,1,2,-2,0,16,15,26,9,0,-5
-3,-1,0,2,-1,0,18,15,26,9,0,-5
-3,-2,0,2,-1,-1,20,15,27,9,0,-5
-3,-2,0,2,-1,-1,21,15,27,9,0,-5
-2,-2,0,2,-1,-1,22,15,27,9,0,-5
-2,-2,0,2,-1,-1,23,15,28,9,0,-5
-2,-2,0,3,-1,-1,23,15,28,9,0,-5
-2,-3,0,3,-1,-2,22,15,28,9,0,-5
-2,-3,0,3,-1,-2,22,16,28,9,0,-5
-2,-4,0,3,-1,-2,22,17,28,9,0,-5
-2,-4,-1,3,-1,-2,21,17,29,9,-1,-6
-3,-4,-1,3,-1,-2,20,18,29,9,-1,-6
-3,-4,-1,4,-1,-3,19,18,29,8,-1,-7
-3,-5,-2,4,0,-3,17,17,28,8,-2,-8
-3,-5,-3,4,0,-4,15,17,28,7,-2,-8
-3,-5,-2,4,0,-4,14,18,29,8,-2,-8
-4,-5,-1,4,-1,-3,14,19,30,9,-1,-7
-6,-5,1,5,-3,-1,14,20,31,10,0,-6
-8,-5,4,6,-6,0,15,22,33,12,0,-5
-9,-4,5,6,-7,1,15,23,34,12,1,-5
-7,-4,3,5,-5,0,13,23,34,12,0,-5
-4,-4,0,4,-2,-1,11,23,34,11,0,-6
-2,-4,-2,3,0,-2,9,23,33,11,-1,-7
-1,-4,-3,3,1,-3,7,23,33,11,-2,-8
0,-4,-4,3,2,-4,5,23,33,11,-2,-8
0,-5,-5,3,3,-4,4,23,34,11,-2,-8
0,-5,-5,2,3,-5,3,23,34,11,-2,-8
0,-4,-5,2,3,-5,2,24,35,11,-2,-9
0,-4,-5,1,3,-5,2,26,36,11,-2,-9
0,-4,-4,2,2,-5,1,27,37,12,-2,-9
-1,-4,-4,2,2,-4,2,29,38,12,-2,-9
-2,-4,-3,3,1,-4,4,30,39,13,-1,-9
-2,-4,-2,3,1,-3,5,31,40,14,-1,-9
-3,-4,-2,3,0,-3,5,32,41,15,-1,-9
-3,-5,-2,4,0,-4,6,32,41,15,-2,-9
-3,-5,-3,4,0,-4,6,33,42,15,-2,-10
-2,-5,-3,4,0,-4,7,34,43,15,-2,-10
-2,-5,-3,4,0,-4,9,35,44,15,-2,-10
-3,-5,-3,4,0,-4,10,37,45,16,-2,-10
-3,-5,-2,4,0,-4,12,39,47,17,-2,-10
-2,-4,-2,4,0,-3,12,40,48,18,-1,-10
-2,-3,-2,3,0,-3,13,42,50,19,-1,-10
-2,-3,-2,3,0,-2,13,43,52,20,-1,-10
-2,-4,-2,3,0,-2,12,44,53,20,-1,-10
-2,-4,-2,3,0,-2,12,45,54,21,-1,-10
-2,-4,-2,3,0,-2,13,47,55,22,-1,-10
-4,-4,0,4,-2,-1,14,50,58,23,-1,-10
-7,-4,4,5,-5,0,16,53,60,24,0,-9
-10,-4,6,7,-7,1,17,55,62,25,0,-9
-10,-4,6,7,-7,0,17,56,64,26,0,-10
-9,-4,4,7,-6,0,18,57,64,26,0,-10
-6,-3,2,5,-4,0,20,57,65,26,-1,-10
-2,-3,0,3,0,-1,21,58,65,26,-2,-11
1,-3,-3,1,2,-2,22,58,65,25,-3,-12
2,-2,-5,0,4,-2,24,59,66,25,-3,-13
1,-2,-5,0,4,-3,26,61,67,26,-4,-14
1,-2,-4,0,3,-3,29,63,69,26,-4,-14
0,-2,-3,0,3,-3,32,65,70,27,-4,-14
0,-2,-3,0,2,-3,35,66,71,27,-4,-14
0,-2,-3,1,2,-2,38,66,72,28,-4,-14
-2,-2,-1,2,0,-1,41,67,73,28,-4,-14
-5,-3,1,4,-2,0,44,68,74,29,-4,-14
-6,-3,2,5,-4,0,46,69,75,30,-3,-14
-6,-3,1,5,-3,0,48,69,76,30,-4,-14
-3,-3,-2,3,0,-2,48,69,76,29,-6,-16
0,-4,-4,2,2,-4,49,69,76,28,-7,-17
0,-4,-5,2,2,-4,49,68,76,27,-8,-17
0,-4,-4,2,2,-4,49,68,75,27,-8,-18
0,-4,-4,2,2,-4,49,68,75,27,-8,-18
0,-4,-4,2,2,-4,49,67,75,27,-8,-18
-1,-4,-4,3,1,-4,49,67,75,27,-8,-18
-1,-4,-3,3,1,-4,49,68,75,27,-9,-18
-2,-4,-3,3,0,-3,50,68,76,27,-9,-18
-2,-4,-2,3,0,-3,50,69,76,27,-9,-18
-3,-4,-2,3,0,-3,50,68,76,27,-9,-18
-3,-4,-2,3,0,-3,50,68,75,26,-10,-18
-2,-4,-2,2,0,-3,50,67,75,26,-10,-17
-2,-2,-1,2,0,-2,51,66,74,27,-9,-17
-3,-2,-1,2,0,-2,52,65,73,27,-9,-17
-3,-2,-1,2,0,-2,52,63,72,26,-9,-17
-3,-3,-1,2,0,-2,52,60,70,25,-10,-17
-3,-3,-1,2,0,-2,52,58,69,24,-10,-17
-4,-2,0,2,-1,-1,53,57,67,25,-9,-16
-4,-2,1,2,-2,0,53,55,66,25,-9,-15
-1,-1,0,1,0,0,54,52,63,24,-8,-14
1,0,-2,-1,2,-1,53,49,60,23,-8,-14
3,1,-2,-2,3,-1,53,46,58,23,-7,-13
2,1,-2,-2,2,0,53,44,55,23,-6,-11
2,2,-1,-2,2,0,52,41,53,22,-4,-10
2,2,0,-2,2,1,52,39,51,21,-3,-9
3,3,-1,-3,2,1,52,36,49,20,-2,-8
4,3,-1,-4,3,1,51,34,46,19,-2,-7
3,3,-1,-3,2,1,51,32,43,18,-1,-6
1,2,0,-2,1,1,51,29,40,17,-1,-5
-1,1,1,0,-1,1,51,26,37,17,0,-4
-2,1,2,1,-2,1,52,24,35,16,1,-2
-2,2,2,0,-2,2,52,22,33,15,1,-1
-1,2,2,0,-1,2,51,19,30,14,2,0
-1,2,2,-1,-1,2,51,17,28,13,2,0
-1,2,3,-1,-1,2,52,16,27,12,3,0
-1,3,3,-2,-2,3,52,15,25,12,3,1
-1,4,4,-2,-3,4,54,14,24,11,4,2
-2,4,6,-1,-4,5,55,14,23,11,4,3
-2,5,6,-1,-4,5,56,13,22,10,5,4
-2,5,6,-2,-4,6,56,11,20,9,5,4
-1,5,5,-3,-3,6,56,10,19,8,5,4
-1,5,5,-2,-2,6,55,8,17,7,5,4
-1,4,5,-2,-2,5,54,6,16,6,4,4
-1,4,5,-2,-2,5,52,5,14,5,3,3
0,4,4,-2,-2,5,50,3,13,4,3,3
0,5,5,-3,-2,5,49,2,12,4,3,3
0,6,5,-3,-2,5,49,1,11,4,3,3
0,7,5,-3,-2,5,49,0,10,3,2,3
0,6,5,-3,-2,5,48,-2,8,2,2,3
-1,6,5,-3,-3,5,47,-3,7,1,1,3
-2,6,6,-2,-3,6,46,-5,7,0,1,3
-3,6,7,-2,-4,6,46,-6,6,0,1,3
-3,5,8,-1,-5,7,45,-6,6,0,1,2
-4,5,8,-1,-6,7,45,-7,5,0,1,2
-4,5,9,0,-7,7,44,-8,5,-1,0,1
-5,4,9,0,-7,7,42,-8,4,-1,0,1
-5,5,10,0,-7,7,41,-8,4,-1,0,1
-3,6,10,-1,-6,8,40,-8,4,-1,0,2
-2,7,9,-2,-5,8,39,-8,3,-1,0,2
-4,7,11,-1,-7,8,39,-8,3,-1,0,2
-7,6,13,0,-10,9,38,-7,4,0,1,3
-9,5,14,2,-12,10,38,-6,4,0,1,3
-9,5,13,2,-11,9,37,-5,4,0,1,3
-5,4,9,0,-7,7,35,-6,3,-2,0,2
0,4,4,-2,-2,4,32,-8,2,-4,-2,1
3,4,0,-3,1,2,30,-8,1,-5,-3,0
3,3,0,-3,2,1,29,-7,1,-5,-3,0
2,3,0,-3,1,1,29,-7,1,-5,-3,0
1,2,0,-2,0,1,28,-6,1,-5,-3,0
1,2,0,-2,0,0,27,-6,1,-5,-3,-1
0,1,0,-1,0,0,26,-5,2,-5,-3,-1
0,0,1,0,0,0,25,-5,3,-4,-3,-1
0,0,1,0,0,0,24,-4,3,-4,-3,-1
-1,0,1,1,0,0,22,-4,4,-4,-3,-1
-1,-1,1,1,-1,0,21,-4,4,-3,-2,0
-1,-1,0,1,-1,0,20,-4,5,-3,-2,0
-1,-1,0,1,0,0,20,-4,5,-3,-2,0
0,-1,-1,0,0,-1,19,-4,5,-4,-2,0
0,-1,-1,0,0,-1,19,-4,6,-4,-2,0
0,-1,-1,1,0,-1,19,-3,6,-3,-2,0
0,-1,-1,1,0,-1,18,-3,7,-3,-2,0
-1,-1,-1,2,0,-1,18,-3,7,-3,-2,0
-1,-2,-2,2,0,-2,18,-3,7,-3,-2,0
-1,-2,-3,2,1,-2,18,-3,7,-3,-2,0
-1,-3,-3,2,0,-2,19,-2,7,-3,-2,0
-2,-3,-2,3,0,-3,20,-2,7,-3,-2,0
-2,-4,-2,3,0,-3,21,-2,7,-3,-2,0
-3,-4,-2,3,0,-3,23,-1,7,-2,-2,0
-3,-4,-2,3,0,-3,24,-1,7,-2,-2,0
-2,-4,-2,3,0,-4,25,-1,7,-2,-2,-1
-2,-4,-3,3,0,-4,26,-1,8,-2,-2,-1
-3,-4,-2,4,0,-4,26,0,8,-2,-2,-1
-4,-4,-1,4,-1,-3,27,0,9,-1,-1,-1
-6,-4,1,5,-3,-1,27,1,10,0,-1,0
-8,-4,3,5,-5,0,28,2,11,0,0,0
-9,-4,4,6,-7,0,28,2,11,0,0,0
-8,-5,2,6,-5,-1,28,2,11,0,-1,0
-6,-5,-1,5,-2,-3,28,1,10,-1,-1,-1
-4,-6,-3,5,0,-4,28,1,10,-2,-2,-2
-3,-6,-5,4,1,-5,27,0,9,-2,-2,-2
-1,-7,-7,4,3,-6,26,0,9,-3,-3,-3
0,-8,-8,3,4,-7,24,-1,8,-3,-4,-4
0,-8,-9,3,5,-8,23,-2,8,-4,-5,-5
0,-9,-9,3,4,-8,22,-2,8,-4,-5,-5
0,-8,-8,3,4,-8,22,-1,9,-4,-5,-5
0,-8,-8,3,4,-8,23,-1,10,-3,-4,-5
0,-7,-7,3,3,-7,23,0,11,-2,-3,-4
0,-6,-6,3,3,-6,24,0,12,-1,-2,-3
-1,-6,-5,3,2,-5,24,1,13,0,-2,-2
-1,-5,-5,3,2,-5,24,1,13,0,-1,-2
-1,-5,-5,3,2,-5,24,1,13,0,-1,-2
-1,-5,-5,3,2,-5,24,1,13,0,-2,-2
-1,-6,-5,3,2,-6,25,1,13,-1,-2,-2
-2,-6,-6,4,2,-7,25,1,13,-1,-2,-3
-3,-7,-6,5,2,-7,26,0,13,-1,-2,-3
-3,-8,-5,5,1,-6,26,0,13,-1,-2,-3
-4,-8,-5,5,1,-6,28,0,13,-1,-2,-3
-3,-8,-4,5,1,-5,29,0,13,-1,-2,-3
-3,-7,-4,5,1,-5,31,-1,13,-1,-2,-3
-2,-7,-4,4,1,-6,32,-1,13,-1,-2,-3
-1,-7,-5,4,2,-6,32,-1,13,-2,-2,-3
-1,-7,-5,3,2,-6,33,-1,13,-2,-2,-3
-2,-7,-5,4,2,-6,35,-1,13,-2,-2,-2
-4,-7,-3,5,0,-6,36,0,13,-2,-2,-2
-7,-7,-1,7,-2,-5,38,0,14,-1,-1,-1
-10,-7,2,9,-6,-3,39,0,14,0,0,-1
-11,-8,3,9,-6,-3,39,0,14,0,0,-1
-8,-8,0,8,-3,-4,37,0,13,-1,-1,-1
-4,-8,-4,6,0,-6,36,-1,11,-2,-2,-2
-2,-8,-6,5,1,-7,35,-1,11,-3,-2,-2
-1,-8,-7,5,3,-8,34,-1,11,-4,-2,-3
-1,-8,-7,5,3,-8,33,0,11,-4,-2,-3
-1,-8,-7,5,3,-8,32,0,11,-4,-3,-3
-2,-9,-7,5,3,-8,31,-1,10,-5,-3,-4
-2,-9,-7,6,3,-8,30,-1,10,-5,-4,-4
-3,-10,-7,6,2,-8,30,0,10,-5,-4,-4
-3,-10,-6,6,1,-8,31,0,10,-5,-3,-4
-3,-9,-6,6,1,-7,31,0,11,-4,-3,-3
-3,-9,-6,6,2,-7,31,1,11,-4,-3,-3
-3,-9,-6,6,2,-7,30,1,10,-4,-3,-3
-3,-9,-6,6,2,-8,29,1,10,-4,-3,-3
-3,-10,-7,6,2,-8,27,1,10,-4,-4,-3
-3,-10,-7,6,2,-9,26,3,11,-4,-4,-4
-3,-11,-8,7,2,-10,26,7,14,-3,-5,-6
-4,-13,-9,8,2,-11,25,12,17,-2,-6,-8
-4,-14,-10,9,2,-12,24,16,21,-1,-7,-10
-5,-14,-10,10,2,-12,24,20,24,0,-7,-11
-5,-14,-9,10,2,-12,24,22,28,4,-6,-10
-6,-13,-7,10,1,-10,23,25,32,10,-2,-8
-5,-11,-6,8,1,-9,23,27,38,17,3,-5
-3,-8,-5,6,1,-7,22,29,45,26,11,0
0,-5,-5,3,2,-5,19,29,52,37,22,7
1,-1,-3,0,2,-2,15,24,56,49,35,16
3,3,0,-3,1,1,10,17,56,61,49,27
3,7,3,-5,0,5,5,8,53,72,65,40
3,11,7,-6,-1,9,2,-2,44,80,82,54
7,14,7,-10,0,11,-3,-16,28,85,98,68
17,18,1,-18,8,10,-10,-34,6,85,112,82
29,23,-6,-26,18,8,-19,-54,-18,83,127,96
39,28,-12,-34,26,7,-30,-74,-42,81,145,113
47,33,-15,-41,31,8,-41,-93,-63,81,165,132
54,39,-16,-47,35,11,-52,-113,-82,81,188,154
60,46,-16,-53,38,14,-63,-133,-100,82,210,175
66,53,-15,-59,40,19,-73,-154,-117,80,229,194
72,59,-13,-65,43,23,-81,-173,-133,76,243,210
76,64,-13,-69,45,25,-87,-189,-149,65,244,217
78,65,-13,-71,46,26,-91,-202,-166,46,229,213
77,64,-13,-71,46,26,-91,-213,-183,18,198,197
74,61,-14,-68,44,24,-90,-224,-203,-17,156,174
68,57,-12,-63,41,22,-89,-235,-224,-56,108,147
57,50,-9,-54,34,20,-86,-247,-245,-98,56,114
45,39,-7,-42,26,16,-84,-257,-266,-140,3,78
33,27,-8,-30,21,10,-82,-265,-284,-178,-45,44
22,13,-10,-17,17,2,-79,-267,-294,-207,-85,12
11,-1,-13,-4,13,-7,-71,-259,-293,-225,-115,-17
2,-16,-17,7,10,-16,-62,-243,-283,-230,-135,-42
-6,-27,-21,16,7,-24,-52,-224,-266,-226,-145,-59
-11,-35,-23,23,6,-29,-43,-204,-247,-218,-148,-71
-15,-39,-25,27,5,-32,-37,-184,-227,-208,-147,-79
-18,-42,-25,30,3,-34,-32,-165,-206,-194,-143,-83
-20,-43,-25,32,2,-34,-27,-145,-184,-179,-136,-85
-22,-44,-23,33,0,-33,-22,-127,-163,-161,-127,-83
-23,-42,-18,33,-2,-30,-17,-108,-140,-142,-114,-78
-25,-37,-11,31,-6,-24,-11,-90,-117,-121,-100,-70
-27,-32,-4,29,-11,-18,-5,-72,-96,-102,-85,-62
-28,-27,2,28,-15,-12,0,-56,-77,-85,-73,-53
-29,-22,7,26,-17,-8,5,-41,-60,-71,-62,-46
-28,-18,9,23,-18,-4,9,-28,-45,-59,-52,-39
-25,-14,10,19,-17,-2,12,-17,-32,-48,-44,-34
-22,-11,10,16,-16,-1,14,-8,-22,-39,-37,-29
-20,-9,11,14,-15,1,16,-2,-14,-30,-31,-25
-19,-6,13,13,-15,3,18,3,-6,-23,-25,-21
-17,-4,14,11,-15,5,19,8,0,-16,-19,-17
-14,-1,14,8,-13,6,19,11,5,-12,-15,-14
-11,0,12,6,-11,6,18,14,8,-9,-13,-12
-10,2,11,4,-10,6,18,16,11,-7,-11,-10
-9,3,11,3,-10,6,18,18,14,-5,-9,-9
-8,3,10,2,-9,6,18,19,16,-3,-8,-8
-8,3,9,2,-9,6,17,20,17,-2,-8,-8
-7,3,10,2,-9,6,17,20,18,0,-7,-8
-7,3,11,2,-9,7,16,20,18,0,-6,-7
-8,4,12,2,-10,7,15,21,19,1,-5,-6
-8,4,12,2,-10,8,14,22,20,2,-4,-6
-8,4,12,2,-9,8,13,23,20,2,-4,-6
-8,4,11,2,-9,7,12,24,21,2,-4,-6
-10,4,12,3,-10,8,12,26,23,3,-3,-5
-11,4,14,3,-12,9,13,28,25,5,-2,-4
-11,5,15,3,-13,10,13,30,26,6,-1,-3
-10,6,15,2,-13,10,12,29,27,7,0,-3
-8,5,14,2,-12,10,11,28,26,8,0,-2
-5,5,11,0,-8,8,9,27,25,7,-1,-3
-2,5,7,-1,-4,6,7,26,25,6,-1,-3
0,4,4,-2,-2,5,6,26,25,6,-1,-3
0,4,2,-2,-1,4,6,26,25,6,-2,-4
0,3,2,-2,-1,3,6,27,26,6,-2,-4
1,3,1,-3,0,2,6,27,26,6,-2,-5
2,2,0,-3,0,1,6,27,26,6,-2,-5
2,2,1,-2,0,1,6,28,26,7,-2,-4
0,1,2,-1,-1,1,7,29,26,7,-1,-4
-1,1,3,0,-2,2,7,29,27,8,-1,-4
-2,1,3,0,-2,2,8,30,27,8,0,-3
-2,1,3,0,-2,1,9,30,27,8,0,-3
-2,0,2,0,-2,1,9,31,27,8,-1,-3
-2,0,1,0,-1,0,10,31,27,9,-1,-4
-1,0,0,0,-1,0,11,31,28,9,-1,-4
-1,0,0,0,0,0,12,32,28,9,-1,-4
-1,0,1,1,-1,0,13,32,28,10,0,-4
-1,0,1,1,-1,0,15,33,28,10,0,-4
-1,0,0,1,-1,0,16,33,28,10,0,-4
-1,-1,0,1,-1,-1,16,33,28,10,0,-4
-2,-1,0,1,-1,-1,17,33,28,10,0,-4
-2,-2,0,2,-1,-1,18,33,29,10,0,-4
-5,-2,2,3,-3,0,20,34,29,10,0,-4
-9,-3,5,6,-7,0,21,35,30,11,0,-3
-11,-3,7,7,-9,1,22,36,31,11,0,-3
-9,-3,5,5,-7,1,22,36,30,11,0,-3
-4,-2,1,3,-2,0,21,35,29,10,-1,-4
-1,-2,-1,1,0,-1,20,34,29,9,-1,-5
0,-2,-2,1,1,-2,20,35,29,9,-2,-6
0,-2,-3,0,2,-2,19,35,29,9,-2,-6
0,-2,-3,0,2,-3,19,35,29,9,-3,-7
0,-2,-3,0,2,-3,19,35,29,9,-3,-7
0,-3,-3,1,2,-3,18,35,30,9,-3,-7
0,-3,-3,1,2,-3,18,36,30,9,-3,-7
0,-3,-3,1,1,-3,17,37,31,10,-2,-6
-1,-3,-2,2,0,-2,17,38,32,11,-2,-6
-2,-4,-1,3,0,-2,17,40,33,11,-2,-6
-3,-4,0,3,-1,-2,17,41,33,12,-2,-6
-3,-4,0,3,-1,-2,17,42,34,12,-2,-6
-3,-4,0,3,-1,-2,16,42,34,12,-2,-6
-3,-5,-1,4,-1,-3,16,43,35,12,-2,-6
-4,-5,-1,4,-1,-3,16,43,35,13,-2,-7
-4,-5,-1,4,-1,-3,16,44,36,13,-2,-7
-4,-5,-1,4,-1,-3,16,45,38,14,-2,-7
-3,-4,-1,4,-1,-3,16,46,39,14,-2,-7
-3,-4,-1,4,-1,-2,16,47,41,15,-2,-7
-3,-3,-1,4,-1,-2,16,48,42,15,-2,-7
-3,-3,-1,4,-1,-2,15,49,43,16,-1,-7
-2,-2,-1,3,0,-2,16,50,44,16,-1,-7
-2,-2,0,3,0,-2,17,51,45,17,-1,-7
-3,-3,0,3,-1,-2,18,52,46,17,-2,-7
-4,-3,0,4,-2,-2,20,53,47,17,-2,-8
-4,-3,0,4,-2,-2,21,54,48,18,-2,-8
-4,-3,0,4,-2,-2,23,56,49,19,-2,-9
-4,-4,0,4,-1,-2,25,57,50,19,-2,-9
-4,-4,0,4,-2,-2,27,58,51,20,-2,-9
-4,-3,2,4,-3,0,29,60,54,22,-1,-8
-5,-2,4,3,-5,1,30,63,56,23,0,-7
-7,-2,6,4,-7,2,32,65,58,25,0,-7
-8,-2,7,5,-8,2,33,66,60,26,1,-6
-8,-2,7,5,-8,2,34,67,61,26,1,-7
-5,-1,3,3,-4,1,35,68,62,26,0,-8
1,0,-1,0,0,0,35,68,62,25,-1,-9
4,0,-3,-1,3,-1,35,68,62,24,-3,-10
3,-1,-3,-1,3,-1,36,69,63,24,-3,-11
2,-1,-2,0,2,-1,36,70,64,25,-4,-11
2,-1,-2,0,2,-1,37,71,64,25,-4,-12
2,-1,-2,0,2,-1,37,72,65,26,-4,-12
2,0,-2,-1,2,-1,38,73,66,26,-4,-13
1,0,-1,-1,1,-1,40,74,68,27,-4,-13
1,0,0,0,1,0,42,76,69,28,-4,-13
0,0,0,0,0,0,44,77,70,28,-5,-13
0,0,0,0,0,0,45,77,71,28,-5,-13
0,0,0,0,0,0,46,78,71,28,-5,-13
0,0,0,0,0,0,47,78,72,28,-5,-13
0,0,0,0,0,0,47,79,72,28,-6,-14
0,0,0,0,0,0,48,79,72,28,-6,-14
0,0,0,0,0,0,48,80,73,28,-7,-15
-1,0,0,1,0,0,49,80,73,28,-7,-15
-2,-1,1,1,-1,0,50,80,73,28,-8,-15
-2,-2,1,2,-1,0,50,80,73,28,-8,-15
-3,-2,1,3,-2,-1,50,79,73,27,-9,-16
-2,-2,0,2,-1,-1,50,79,72,26,-9,-16
-1,-2,0,2,-1,-1,50,79,72,26,-10,-16
-2,-2,0,2,-1,-1,50,78,72,26,-10,-16
-2,-2,0,2,0,-2,50,78,71,25,-11,-17
-1,-2,-1,1,0,-2,51,77,70,25,-11,-17
0,-2,-1,1,0,-2,52,76,70,25,-11,-17
-1,-2,0,2,0,-1,52,75,69,25,-11,-17
-3,-2,1,3,-2,0,52,73,69,25,-11,-16
-4,-2,2,3,-3,0,52,72,68,25,-11,-16
-4,-2,2,3,-3,0,51,70,66,25,-10,-15
-5,-2,3,3,-3,0,51,68,65,24,-10,-15
-4,-2,2,3,-3,0,50,66,62,23,-9,-15
-3,-2,1,2,-1,0,49,62,59,22,-9,-14
-2,-2,0,2,0,0,49,59,57,21,-9,-14
-2,-2,0,2,0,0,49,57,54,21,-8,-13
-2,-2,0,2,-1,0,48,54,52,20,-8,-12
-1,-2,0,1,0,0,48,51,49,19,-8,-12
0,0,-1,0,1,0,47,48,47,19,-8,-11
1,0,0,-1,1,0,47,45,44,18,-7,-9
0,1,0,-1,0,1,47,43,42,17,-5,-8
0,1,1,0,0,1,47,40,39,17,-3,-6
0,2,1,-1,0,1,48,38,37,16,-2,-5
1,2,1,-1,0,1,48,36,34,15,-1,-4
1,2,1,-1,0,1,48,34,32,14,0,-3
0,2,0,-1,0,1,48,32,29,13,0,-2
0,1,0,0,0,1,48,30,27,11,0,-2
0,0,0,0,0,1,47,28,24,10,0,-2
-1,0,1,0,0,1,47,26,22,9,0,-1
-5,0,5,2,-4,2,47,25,20,9,1,0
-10,0,10,4,-9,5,48,24,20,9,3,3
-11,0,11,5,-11,6,48,23,18,9,3,4
-7,0,7,3,-7,4,47,20,15,6,2,3
0,1,1,0,0,1,45,17,12,3,0,1
4,2,-2,-3,3,0,43,15,10,2,-1,0
5,3,-2,-4,4,1,43,15,9,1,0,1
4,4,-1,-3,3,2,42,15,9,1,0,1
2,4,1,-2,0,3,40,15,8,0,0,2
0,4,3,-1,-1,3,39,14,7,0,0,2
-2,3,4,0,-3,3,37,14,6,0,0,2
-3,3,5,0,-4,4,35,13,6,-1,0,2
-3,3,6,0,-4,4,34,13,5,-1,0,2
-1,4,5,-1,-4,5,32,13,5,-2,0,2
-1,4,5,-1,-3,5,29,12,4,-2,0,2
-1,4,6,0,-4,5,26,11,3,-3,0,2
-2,4,7,0,-4,5,24,10,2,-3,0,2
-2,5,7,-1,-4,5,22,9,1,-4,-1,2
-1,6,7,-1,-4,5,20,8,1,-4,-1,2
-2,6,7,-1,-5,6,18,8,0,-4,-1,2
-2,6,8,-1,-5,6,15,7,0,-5,-2,1
-4,5,9,0,-7,7,12,7,0,-5,-2,1
-6,5,11,1,-9,8,10,7,0,-5,-2,1
-7,5,12,1,-9,9,8,6,-1,-5,-2,1
-6,5,12,1,-9,9,5,5,-1,-6,-2,1
-6,6,12,0,-9,9,3,5,-2,-6,-2,1
-5,6,12,0,-9,9,1,5,-2,-7,-2,1
-6,6,12,0,-9,9,0,5,-2,-7,-3,0
-7,6,13,1,-10,9,-2,5,-2,-7,-3,0
-9,5,14,2,-11,9,-3,6,-2,-7,-3,1
-9,5,13,2,-11,9,-5,6,-2,-7,-3,1
-7,5,11,1,-9,8,-7,6,-3,-7,-4,0
-5,5,9,0,-7,7,-9,5,-3,-8,-5,0
-3,5,7,-1,-5,6,-11,5,-3,-9,-5,-1
-2,5,6,-1,-4,5,-12,5,-3,-8,-5,-1
-2,4,5,0,-4,5,-13,6,-3,-8,-5,-1
-2,3,5,0,-4,4,-14,6,-2,-8,-5,-1
-2,3,5,0,-4,4,-14,6,-2,-8,-5,-1
-2,2,4,0,-3,3,-14,6,-2,-8,-5,-1
-3,2,4,1,-4,3,-14,6,-2,-8,-5,-1
-4,2,5,1,-5,3,-14,6,-1,-7,-5,-1
-5,2,6,2,-6,4,-14,7,0,-7,-4,-1
-5,2,7,1,-6,4,-13,8,1,-6,-4,0
-4,2,7,1,-5,4,-13,9,2,-5,-3,0
-4,2,6,1,-5,3,-13,9,2,-5,-3,0
-3,1,4,1,-4,2,-14,9,2,-5,-4,0
-4,0,5,2,-5,2,-14,9,3,-5,-4,0
-7,0,7,3,-7,3,-14,10,4,-4,-3,0
-7,0,7,4,-7,4,-14,11,5,-3,-3,0
-6,0,5,3,-6,2,-15,10,4,-4,-3,0
-4,-1,2,3,-3,0,-17,9,3,-5,-4,-1
-2,-2,0,2,-1,-1,-18,8,2,-5,-5,-1
0,-2,-3,1,1,-2,-19,7,2,-6,-5,-1
1,-2,-4,1,2,-3,-19,7,1,-6,-5,-1
1,-2,-4,0,2,-3,-19,7,1,-5,-5,-1
1,-2,-4,0,2,-3,-18,7,2,-5,-5,-1
1,-2,-4,0,2,-3,-18,7,2,-5,-5,-1
0,-3,-3,1,1,-3,-18,7,2,-5,-5,-2
0,-3,-2,2,0,-3,-18,8,2,-5,-5,-2
-1,-3,-2,3,0,-3,-18,8,2,-5,-5,-2
-2,-4,-2,4,0,-3,-18,8,3,-5,-5,-2
-3,-4,-2,4,-1,-3,-18,8,3,-5,-5,-2
-4,-5,-1,5,-2,-3,-18,8,4,-4,-4,-2
-5,-5,-1,5,-2,-3,-18,8,4,-4,-4,-2
-4,-5,-1,4,-1,-3,-18,7,5,-4,-4,-2
-2,-4,-1,3,0,-3,-18,8,5,-4,-4,-1
-2,-3,-1,3,0,-3,-18,8,6,-3,-4,-1
-4,-4,0,4,-2,-2,-18,8,6,-3,-3,0
-7,-4,2,6,-4,-1,-18,9,7,-2,-3,0
-9,-4,3,7,-6,0,-18,9,8,-1,-2,0
-8,-4,3,5,-5,0,-19,9,8,-1,-2,0
-4,-3,1,3,-2,-1,-20,8,7,-1,-3,0
-2,-4,-1,2,0,-2,-21,7,7,-2,-4,-1
-1,-5,-3,2,1,-3,-22,7,6,-3,-4,-2
-1,-5,-3,2,1,-4,-23,6,6,-3,-4,-2
-1,-5,-3,3,1,-4,-23,6,6,-3,-4,-1
-2,-5,-2,3,0,-4,-22,7,6,-3,-4,-1
-3,-5,-2,4,0,-4,-22,8,7,-3,-4,-1
-3,-5,-2,4,0,-4,-22,8,7,-3,-4,-1
-3,-5,-2,4,0,-4,-22,8,7,-3,-4,-1
-3,-5,-2,4,0,-4,-22,8,7,-3,-4,-1
-4,-5,-1,4,-1,-4,-22,8,7,-3,-4,-1
-4,-6,-1,5,-1,-4,-23,8,7,-3,-4,-1
-4,-6,-2,5,0,-4,-23,8,7,-3,-5,-1
-4,-6,-2,5,0,-5,-24,7,7,-3,-5,-1
-4,-6,-2,5,-1,-4,-24,7,7,-3,-4,-1
-6,-5,0,6,-2,-3,-24,7,8,-3,-4,-1
-6,-5,1,6,-3,-2,-24,7,8,-2,-3,0
-7,-6,1,6,-3,-2,-23,7,8,-3,-3,0
-7,-6,1,6,-3,-2,-23,7,8,-3,-4,0
-5,-6,0,5,-2,-3,-24,7,8,-4,-4,-1
-3,-6,-2,4,0,-4,-25,7,8,-4,-5,-1
-1,-6,-4,3,1,-5,-26,6,7,-5,-6,-2
-1,-6,-5,3,2,-5,-26,5,7,-5,-6,-2
-2,-6,-5,4,1,-5,-27,5,7,-5,-6,-2
-2,-6,-4,4,1,-5,-27,5,7,-5,-6,-2
-2,-6,-4,4,1,-5,-28,5,7,-6,-6,-2
-3,-6,-4,4,0,-5,-28,5,7,-6,-6,-2
-4,-7,-3,5,0,-5,-28,6,7,-6,-6,-2
-6,-7,-2,7,-2,-5,-28,6,7,-6,-6,-2
-7,-7,-1,8,-3,-4,-27,7,8,-5,-5,-1
-7,-7,0,8,-4,-4,-27,7,9,-5,-5,-1
-7,-6,0,7,-3,-4,-26,7,9,-4,-5,-1
-7,-7,0,7,-3,-5,-27,7,9,-5,-5,-1
-7,-8,0,7,-4,-5,-27,6,8,-5,-6,-2
-8,-8,0,8,-4,-4,-26,6,8,-5,-5,-1
-7,-8,0,7,-3,-4,-25,7,8,-5,-5,-1
-5,-7,-2,6,-1,-5,-24,6,8,-5,-6,-1
-3,-7,-4,5,0,-6,-24,6,8,-6,-6,-2
-2,-7,-6,4,2,-6,-23,5,7,-6,-7,-2
-1,-7,-7,4,3,-7,-22,5,7,-6,-7,-2
-1,-7,-7,4,3,-7,-21,5,7,-6,-7,-2
-1,-8,-8,4,4,-8,-21,5,7,-6,-7,-3
-2,-9,-8,5,3,-8,-19,6,9,-6,-7,-3
-4,-10,-7,7,2,-9,-18,9,12,-6,-8,-4
-5,-12,-8,8,2,-10,-17,12,15,-5,-9,-6
-5,-13,-8,9,2,-11,-15,16,19,-3,-10,-8
-5,-13,-8,10,1,-11,-14,18,23,0,-10,-9
-5,-13,-7,9,1,-10,-12,20,27,4,-8,-9
-5,-12,-7,8,1,-10,-11,21,31,9,-5,-8
-3,-11,-7,7,2,-9,-11,22,35,15,-1,-6
-1,-8,-7,4,3,-8,-11,23,41,23,6,-2
1,-5,-6,2,3,-6,-11,24,49,33,16,5
2,-1,-4,0,3,-3,-12,22,54,46,29,15
3,3,-1,-2,1,1,-15,16,56,59,44,26
5,7,1,-5,1,4,-19,7,54,70,59,39
9,11,1,-9,4,6,-24,-4,46,79,75,52
15,14,-1,-14,8,6,-29,-17,33,84,91,65
19,17,-2,-18,11,7,-35,-32,14,86,107,80
24,21,-3,-22,14,8,-41,-48,-8,86,124,97
30,25,-6,-28,18,9,-49,-65,-31,84,143,115
39,31,-9,-35,24,10,-59,-83,-53,82,164,136
47,37,-11,-42,29,12,-69,-102,-72,82,189,159
54,44,-11,-49,33,16,-80,-122,-90,83,213,182
61,52,-11,-56,36,20,-91,-142,-108,82,235,204
68,59,-10,-63,39,24,-102,-163,-125,78,253,222
73,64,-10,-68,41,27,-110,-181,-141,70,260,233
75,66,-9,-70,42,28,-115,-195,-157,55,252,234
74,66,-8,-70,41,29,-116,-205,-173,30,228,222
70,64,-7,-68,39,28,-114,-215,-190,-1,190,201
65,60,-5,-63,35,27,-112,-225,-209,-38,143,175
56,54,-3,-55,30,26,-108,-237,-230,-79,89,141
45,45,-1,-45,23,22,-104,-248,-251,-123,30,102
32,34,1,-33,15,18,-100,-257,-269,-163,-24,64
19,21,1,-20,8,12,-96,-262,-283,-196,-70,29
8,7,-1,-7,4,3,-89,-260,-288,-219,-107,-4
0,-8,-9,4,5,-8,-80,-250,-283,-231,-133,-33
-4,-22,-17,13,7,-20,-71,-234,-270,-232,-148,-55
-8,-32,-23,20,8,-28,-61,-215,-253,-226,-155,-70
-12,-39,-27,25,8,-33,-53,-198,-235,-216,-156,-79
-16,-43,-27,30,6,-35,-47,-181,-216,-204,-154,-85
-20,-45,-26,33,3,-35,-42,-163,-195,-189,-148,-88
-22,-46,-24,34,1,-35,-38,-144,-174,-172,-139,-87
-24,-44,-21,34,-1,-32,-33,-126,-151,-153,-127,-83
-26,-40,-15,33,-5,-28,-28,-107,-129,-133,-113,-76
-27,-35,-8,31,-10,-22,-23,-90,-107,-112,-97,-68
-27,-30,-2,29,-13,-16,-18,-74,-87,-94,-83,-59
-27,-24,3,26,-15,-10,-14,-59,-69,-78,-71,-50
-26,-19,7,23,-17,-6,-11,-47,-53,-65,-60,-42
-26,-15,9,21,-18,-3,-9,-36,-39,-53,-51,-36
-24,-12,10,19,-18,-1,-8,-27,-28,-43,-43,-31
-23,-10,11,17,-17,0,-8,-21,-19,-34,-37,-27
-21,-8,11,15,-17,1,-8,-15,-12,-27,-31,-23
-19,-6,13,13,-17,3,-8,-10,-5,-19,-24,-18
-19,-3,17,12,-18,6,-8,-4,1,-12,-18,-13
-19,0,20,11,-19,9,-8,0,7,-7,-13,-8
-16,2,18,8,-16,10,-9,2,10,-4,-10,-6
-9,3,12,4,-10,8,-12,2,11,-4,-10,-6
-3,4,7,0,-4,6,-14,2,12,-3,-11,-7
-1,5,5,-1,-3,5,-15,2,13,-2,-10,-8
-2,5,6,-1,-4,5,-15,2,14,-1,-10,-8
-3,5,8,-1,-6,6,-15,3,15,0,-9,-7
-4,5,9,-1,-6,6,-16,3,16,1,-8,-7
-4,5,10,-1,-6,7,-16,4,16,2,-7,-6
-4,5,10,0,-6,7,-16,5,17,2,-6,-5
-6,5,10,0,-7,7,-16,6,18,2,-6,-4
-7,4,10,1,-8,7,-16,7,19,3,-5,-4
-6,4,10,1,-8,7,-16,7,20,4,-5,-4
-6,4,9,1,-8,7,-16,8,21,4,-5,-4
-5,4,9,0,-7,6,-16,8,21,5,-5,-4
-4,4,8,0,-7,6,-16,8,21,5,-5,-4
-4,4,8,0,-6,5,-16,9,21,5,-4,-4
-5,3,8,1,-6,5,-15,9,21,5,-4,-3
-5,2,7,2,-6,4,-15,10,21,6,-4,-3
-4,2,6,1,-5,4,-14,11,22,6,-3,-3
-2,2,4,0,-3,4,-14,12,22,7,-3,-3
-2,2,3,0,-2,3,-15,13,23,7,-3,-3
-2,2,3,0,-3,3,-15,13,23,8,-3,-3
-5,2,6,1,-6,4,-14,14,24,9,-1,-2
-10,2,12,4,-12,7,-12,16,26,11,1,0
-15,2,17,6,-16,9,-11,18,28,13,2,1
-14,2,15,6,-15,8,-12,18,28,12,2,1
-8,1,8,3,-8,4,-15,16,26,10,0,-1
-2,1,2,1,-2,1,-17,15,25,9,-2,-3
0,0,0,1,0,0,-17,15,24,8,-3,-3
-1,0,-1,2,0,-1,-17,15,24,9,-3,-4
0,-1,-1,1,0,-1,-17,14,24,9,-3,-4
0,-1,-2,1,0,-2,-17,14,24,9,-3,-4
0,-1,-2,0,1,-3,-17,14,24,9,-3,-4
0,-1,-1,0,1,-2,-16,15,24,9,-3,-3
0,-1,-1,0,1,-2,-16,16,25,10,-2,-3
0,-1,-1,1,1,-1,-15,17,26,10,-2,-3
-1,-1,0,2,0,-1,-14,18,26,10,-2,-3
-2,-2,0,3,-1,-1,-14,18,27,10,-2,-3
-2,-2,0,3,-1,-1,-13,18,27,10,-2,-3
-3,-2,0,3,-2,-1,-13,18,26,10,-2,-3
-3,-2,0,3,-2,-2,-13,18,26,10,-2,-3
-2,-3,0,3,-1,-2,-13,18,26,10,-2,-3
-2,-3,0,3,-1,-2,-12,19,26,10,-3,-4
-3,-4,0,3,-1,-2,-12,19,26,10,-3,-4
-3,-4,0,3,-2,-2,-11,20,27,10,-3,-4
-4,-4,0,4,-2,-1,-10,21,28,11,-2,-4
-4,-4,0,4,-3,-1,-10,22,29,11,-2,-4
-4,-5,0,5,-3,-2,-9,22,29,12,-2,-4
-4,-5,0,5,-2,-2,-9,22,29,12,-2,-4
-5,-5,1,5,-3,-2,-8,23,30,12,-2,-3
-8,-5,4,6,-6,0,-7,25,32,14,-1,-2
-13,-4,8,8,-10,2,-5,27,34,15,0,-1
-14,-4,10,9,-12,2,-5,28,35,16,1,-1
-11,-4,6,8,-9,1,-5,28,35,16,0,-2
-5,-4,0,5,-3,-2,-7,27,33,14,-2,-5
0,-4,-5,3,2,-5,-8,26,32,13,-3,-6
3,-3,-7,1,5,-5,-8,26,33,13,-4,-7
3,-3,-7,0,5,-5,-7,27,34,13,-4,-7
3,-3,-6,0,4,-4,-7,27,34,13,-4,-7
2,-3,-6,0,4,-4,-6,28,35,13,-4,-7
1,-4,-6,1,3,-5,-6,29,36,13,-4,-7
0,-4,-5,2,2,-5,-6,31,37,14,-3,-7
-1,-4,-4,3,1,-4,-5,33,39,16,-3,-7
-1,-4,-4,3,1,-4,-4,34,40,17,-2,-6
-1,-4,-3,3,0,-4,-3,36,42,18,-2,-6
-1,-4,-3,3,0,-4,-3,37,43,18,-2,-6
-2,-4,-2,3,0,-3,-3,38,44,19,-2,-6
-2,-4,-2,3,0,-3,-3,39,45,19,-2,-6
-2,-4,-2,3,0,-3,-4,40,46,19,-2,-6
-3,-4,-2,4,-1,-3,-4,42,47,20,-2,-7
-3,-4,-1,4,-1,-3,-4,44,49,21,-2,-7
-4,-4,-1,4,-2,-2,-4,46,52,22,-2,-6
-5,-4,0,4,-3,-2,-4,48,54,24,-1,-6
-5,-4,0,4,-3,-2,-4,49,55,24,-1,-6
-5,-4,0,4,-3,-2,-4,50,56,25,-1,-6
-5,-4,0,5,-3,-1,-4,51,57,25,-1,-6
-8,-4,2,6,-6,0,-4,53,58,26,0,-6
-9,-4,4,7,-7,0,-4,55,60,27,0,-6
-8,-4,3,6,-6,0,-5,56,62,28,-1,-7
-3,-3,0,3,-2,-1,-6,57,63,28,-2,-8
1,-1,-2,0,1,-2,-6,58,64,28,-2,-9
2,0,-2,-1,2,-1,-6,60,65,29,-2,-9
2,0,-2,-1,2,-1,-6,61,66,29,-2,-9
2,0,-3,-1,2,-1,-7,61,66,29,-3,-10
3,0,-4,-1,3,-2,-7,61,66,28,-4,-11
3,0,-4,-1,2,-2,-8,61,67,28,-4,-11
2,0,-3,0,2,-2,-8,62,68,29,-4,-11
1,0,-3,0,1,-1,-8,64,70,29,-4,-11
1,-1,-2,0,1,-1,-8,65,71,30,-4,-11
0,-1,-1,0,0,-1,-8,66,72,30,-4,-11
0,-2,-1,1,0,-1,-8,66,73,30,-5,-11
0,-2,-1,1,0,-1,-8,66,73,30,-5,-11
0,-2,-1,1,0,-1,-8,66,73,30,-5,-12
-1,-2,-2,1,0,-2,-9,66,73,30,-6,-12
-1,-3,-2,2,0,-2,-9,66,73,29,-7,-13
-2,-3,-1,2,0,-2,-10,65,73,29,-8,-14
-2,-4,-1,3,0,-2,-11,65,72,28,-9,-15
-1,-3,-1,2,0,-2,-12,65,72,28,-9,-15
0,-1,-1,1,0,-1,-12,65,72,28,-9,-14
0,0,0,0,0,0,-12,65,72,28,-9,-14
-1,-1,0,1,-1,0,-12,64,72,28,-9,-14
-1,-1,0,1,-1,-1,-13,63,71,27,-9,-14
-1,-2,-1,1,0,-1,-14,62,71,27,-9,-14
-1,-2,-2,2,0,-2,-15,61,70,27,-10,-14
-3,-3,0,3,-2,-1,-14,61,70,28,-9,-14
-9,-3,5,6,-7,1,-13,62,71,29,-8,-12
-13,-3,10,8,-11,3,-13,61,71,30,-7,-10
-11,-3,9,7,-10,2,-14,58,69,29,-7,-11
-5,-3,3,4,-4,0,-17,54,65,26,-9,-12
0,-2,-2,1,1,-3,-20,49,61,24,-10,-13
3,-2,-5,0,3,-3,-21,46,58,22,-10,-13
4,-1,-5,-1,4,-3,-21,44,55,21,-10,-13
3,-1,-5,-1,3,-3,-22,42,53,21,-9,-12
2,-1,-4,0,3,-2,-22,40,51,20,-9,-11
2,-1,-3,0,2,-2,-22,37,49,20,-8,-10
1,-1,-2,0,1,-1,-22,35,46,20,-6,-9
1,0,-1,0,1,0,-21,32,44,20,-5,-7
0,1,0,0,0,0,-20,30,42,19,-3,-4
0,1,1,0,-1,1,-19,28,39,19,-1,-2
0,2,1,-1,-1,2,-18,27,37,19,0,-1
1,2,1,-2,0,2,-17,25,35,18,1,0
2,2,0,-2,1,1,-16,23,32,16,1,0
2,1,0,-2,1,0,-15,20,29,14,0,0
2,1,-1,-2,1,0,-15,17,26,12,0,0
2,2,-1,-2,1,0,-14,15,23,11,0,1
2,2,0,-2,1,0,-14,13,21,10,1,2
1,2,0,-1,0,1,-13,11,19,10,2,3
1,3,1,-1,0,2,-13,10,18,9,2,3
1,3,2,-2,0,2,-12,10,17,9,3,4
2,4,2,-3,0,3,-11,9,16,8,3,4
2,4,2,-3,0,3,-11,8,14,7,3,5
0,5,5,-3,-2,4,-10,8,13,7,4,6
-3,5,8,-1,-6,6,-9,7,13,7,5,7
-6,5,11,0,-9,7,-8,7,12,7,6,8
-7,5,12,1,-10,7,-8,6,11,6,6,8
-5,5,10,1,-8,7,-9,4,10,5,5,8
-3,5,8,0,-5,6,-10,3,9,4,4,7
-2,4,6,-1,-4,5,-11,2,7,3,3,6
-1,4,6,-1,-3,5,-12,0,6,2,2,5
-2,4,6,-1,-4,5,-13,0,5,1,2,5
-2,4,7,-1,-4,5,-14,-2,4,0,1,5
-2,3,6,-1,-4,4,-15,-3,3,0,1,4
-2,4,6,-1,-4,4,-16,-4,2,-1,0,4
-2,5,7,-1,-4,5,-16,-4,1,-1,0,5
-2,6,7,-1,-5,6,-16,-5,1,-1,0,5
-3,5,8,0,-6,7,-17,-6,0,-2,0,5
-4,5,9,0,-7,7,-19,-7,0,-2,0,4
-4,5,9,0,-7,7,-20,-7,-1,-3,0,4
-3,5,9,0,-7,7,-21,-8,-1,-3,-1,3
-3,5,9,0,-7,7,-23,-9,-1,-4,-1,3
-4,5,10,0,-7,7,-24,-10,-2,-4,-1,2
-4,6,10,0,-8,8,-25,-11,-2,-4,-1,2
-4,7,10,-1,-8,8,-26,-11,-2,-4,-1,3
-4,7,11,-1,-8,8,-27,-11,-2,-4,-1,3
-4,7,11,0,-8,9,-27,-11,-2,-4,-1,3
-5,7,11,0,-8,9,-28,-11,-2,-4,-1,3
-5,6,11,0,-8,8,-28,-11,-2,-4,-1,3
-5,5,10,0,-7,7,-28,-11,-2,-4,-2,3
-4,4,9,0,-6,6,-27,-11,-2,-5,-2,3
-4,3,8,0,-6,6,-27,-11,-2,-5,-2,3
-6,3,9,1,-7,6,-26,-10,-1,-4,-2,3
-10,3,13,4,-11,8,-25,-8,0,-3,-1,3
-14,2,16,6,-15,9,-23,-7,1,-2,-1,4
-14,2,16,6,-15,9,-23,-6,1,-2,-1,4
-10,2,12,4,-11,6,-23,-7,0,-3,-2,3
-3,1,5,1,-4,2,-25,-9,-1,-5,-3,1
0,0,0,0,0,0,-26,-10,-2,-6,-4,1
2,0,-1,0,1,-1,-27,-10,-2,-6,-4,1
2,0,-1,0,1,-1,-27,-10,-1,-6,-4,1
2,0,-2,0,1,-1,-27,-10,-1,-6,-4,0
2,0,-2,0,1,-1,-28,-10,-1,-6,-4,0
1,0,-2,0,1,-1,-28,-10,-1,-6,-4,0
1,0,-1,0,1,-1,-28,-9,-1,-5,-4,0
1,0,-1,0,1,-1,-28,-9,0,-5,-4,0
1,0,-1,0,1,-1,-28,-8,0,-4,-4,0
1,0,-1,0,1,-1,-28,-8,1,-4,-3,1
0,-1,-1,0,1,-1,-28,-7,1,-3,-2,1
0,-1,-1,1,0,-2,-28,-7,1,-3,-2,2
0,-2,-1,1,0,-2,-27,-7,1,-3,-2,2
0,-2,-2,1,0,-2,-27,-6,2,-3,-2,2
0,-2,-2,2,0,-3,-26,-6,2,-2,-1,2
0,-3,-2,2,0,-3,-26,-5,3,-2,-1,2
-1,-3,-2,2,0,-3,-26,-5,3,-2,-1,2
0,-3,-3,2,1,-4,-26,-5,2,-2,-1,1
0,-4,-4,2,2,-4,-26,-5,2,-3,-2,0
0,-4,-4,2,2,-4,-26,-5,2,-4,-2,0
-1,-4,-2,3,0,-3,-25,-5,3,-3,-2,0
-7,-4,2,6,-5,-1,-23,-3,4,-2,0,2
-11,-5,6,8,-8,0,-22,-2,5,-1,0,3
-8,-5,3,7,-6,0,-23,-3,5,-1,0,2
-3,-5,-2,4,0,-3,-24,-4,3,-3,-1,1
0,-5,-5,3,3,-5,-25,-5,2,-3,-1,1
1,-5,-6,2,3,-5,-25,-5,3,-3,-1,1
1,-5,-5,2,3,-5,-24,-4,3,-2,0,1
0,-5,-5,2,2,-5,-24,-4,3,-2,0,1
0,-5,-5,2,2,-5,-24,-4,3,-2,-1,0
0,-5,-5,2,2,-5,-24,-4,3,-2,-1,0
0,-4,-4,2,2,-4,-23,-4,4,-2,-1,0
-1,-4,-4,2,1,-4,-22,-4,4,-1,0,1
-1,-4,-3,3,1,-3,-22,-3,5,-1,0,2
-3,-4,-2,4,0,-3,-21,-2,5,0,1,3
-4,-4,-1,4,-1,-2,-20,-1,6,0,1,4
-5,-5,0,5,-2,-2,-19,-1,6,0,2,4
-6,-5,1,5,-3,-2,-18,0,6,0,2,4
-7,-5,1,5,-3,-2,-18,0,7,1,2,4
-6,-5,0,5,-3,-2,-18,0,7,1,2,4
-4,-5,-1,5,-1,-3,-18,0,6,0,1,3
-3,-5,-3,4,0,-4,-19,-1,5,0,0,2
-1,-6,-5,4,1,-5,-19,-2,4,-1,-1,1
-1,-6,-6,3,2,-6,-20,-3,4,-2,-1,1
0,-6,-6,3,3,-7,-20,-3,3,-2,-2,0
0,-6,-7,3,3,-7,-20,-3,3,-3,-2,0
0,-6,-7,3,4,-7,-20,-4,3,-3,-3,0
1,-7,-8,3,4,-8,-20,-4,2,-4,-3,-1
1,-7,-8,3,4,-8,-20,-4,1,-4,-3,-1
0,-7,-8,3,3,-7,-19,-4,2,-3,-3,0
0,-7,-7,3,2,-6,-19,-3,3,-3,-2,0
0,-6,-6,3,2,-6,-18,-3,3,-3,-2,0
0,-6,-5,3,2,-6,-18,-3,3,-3,-2,0
-1,-7,-5,3,2,-6,-17,-3,3,-3,-2,0
-1,-7,-5,4,2,-6,-17,-3,3,-3,-3,0
-1,-6,-6,3,2,-6,-17,-3,2,-4,-3,0
-1,-6,-6,3,2,-6,-17,-3,2,-3,-3,0
-2,-6,-4,4,0,-5,-16,-2,3,-3,-2,0
-5,-6,-2,6,-2,-4,-15,-1,3,-2,-2,0
-6,-6,-1,7,-3,-4,-14,-1,3,-2,-2,1
-5,-6,-1,7,-3,-4,-14,-2,3,-2,-2,1
-5,-6,-1,6,-2,-4,-13,-2,3,-2,-2,1
-4,-6,-2,5,-1,-4,-13,-2,3,-2,-2,1
-2,-5,-3,4,0,-4,-13,-2,2,-2,-2,1
0,-5,-5,3,2,-5,-14,-3,2,-3,-3,0
1,-6,-7,3,4,-7,-14,-3,1,-4,-4,0
1,-7,-8,3,4,-8,-15,-4,0,-5,-4,-1
0,-8,-8,5,3,-8,-15,-4,0,-6,-5,-1
-1,-9,-7,6,2,-8,-14,-3,0,-5,-5,-1
-1,-9,-7,6,2,-8,-14,-2,1,-5,-5,-1
-1,-10,-8,6,3,-9,-14,-1,2,-4,-5,-2
-1,-10,-8,6,3,-9,-13,2,5,-3,-5,-3
-3,-12,-8,8,3,-10,-11,7,9,-2,-6,-4
-4,-13,-9,9,2,-11,-9,11,13,0,-6,-6
-5,-14,-9,10,1,-11,-8,15,16,2,-6,-8
-5,-13,-9,9,1,-11,-7,17,19,6,-5,-8
-4,-12,-8,8,1,-10,-7,19,23,11,-3,-8
-4,-10,-6,7,1,-8,-7,21,28,17,2,-5
-4,-7,-4,5,0,-6,-6,24,35,26,10,0
-5,-4,0,4,-2,-2,-7,27,44,39,21,7
-5,-1,5,3,-5,2,-9,27,51,52,35,18
-3,2,6,0,-4,4,-12,21,53,65,49,28
2,7,5,-4,-1,6,-18,12,48,75,63,39
9,11,1,-10,3,6,-24,0,39,82,78,51
17,14,-3,-15,9,5,-31,-12,26,87,94,64
22,18,-5,-20,13,6,-37,-25,8,89,110,79
27,21,-6,-24,16,7,-42,-40,-13,88,128,96
32,25,-7,-29,20,9,-49,-56,-36,85,147,115
39,31,-9,-35,24,11,-58,-72,-59,83,170,137
46,37,-10,-41,28,13,-68,-90,-80,81,195,162
53,43,-9,-48,31,16,-78,-108,-99,80,220,186
58,50,-8,-54,33,21,-88,-128,-118,78,245,210
62,58,-5,-60,34,26,-98,-147,-136,74,266,231
66,64,-3,-65,35,30,-106,-165,-152,67,279,247
68,67,-2,-68,35,33,-111,-179,-168,52,278,252
68,68,-1,-68,35,33,-113,-190,-184,29,259,245
65,66,0,-66,33,33,-112,-199,-200,0,225,227
61,64,1,-63,30,33,-110,-208,-218,-37,180,201
54,59,5,-56,25,32,-107,-218,-238,-78,124,168
43,51,7,-47,18,29,-102,-227,-259,-123,61,127
30,39,8,-34,11,23,-97,-236,-278,-167,-1,83
17,26,8,-21,4,16,-92,-242,-292,-204,-56,43
4,10,5,-7,0,7,-85,-240,-296,-229,-100,6
-5,-6,-1,5,-1,-4,-76,-230,-291,-242,-131,-26
-9,-20,-11,14,1,-16,-67,-215,-277,-243,-150,-51
-10,-30,-20,20,5,-26,-59,-198,-261,-237,-158,-68
-11,-38,-26,25,7,-32,-52,-181,-244,-228,-160,-79
-14,-42,-27,29,6,-35,-46,-165,-226,-215,-159,-86
-17,-44,-27,31,5,-36,-41,-149,-207,-201,-154,-90
-19,-45,-26,32,3,-35,-37,-133,-186,-184,-146,-91
-20,-43,-24,32,2,-34,-33,-116,-163,-164,-134,-87
-21,-40,-19,31,-1,-30,-28,-100,-141,-144,-120,-81
-22,-36,-13,30,-5,-25,-22,-84,-119,-123,-104,-73
-23,-31,-8,28,-8,-19,-17,-69,-99,-103,-89,-64
-23,-26,-3,25,-10,-14,-13,-55,-82,-87,-76,-56
-22,-21,1,23,-12,-10,-10,-43,-66,-72,-65,-48
-21,-16,4,19,-13,-6,-7,-32,-52,-59,-56,-41
-19,-12,6,16,-13,-3,-5,-22,-40,-48,-47,-35
-17,-9,7,13,-13,-1,-3,-16,-30,-38,-40,-30
-15,-6,8,11,-12,0,-2,-11,-22,-30,-33,-26
-12,-4,8,8,-11,1,-2,-7,-15,-22,-26,-21
-9,-2,7,6,-9,2,-3,-3,-9,-16,-21,-17
-7,-1,7,4,-7,3,-3,0,-5,-11,-17,-14
-7,0,8,3,-7,4,-4,2,-1,-7,-14,-11
-10,1,12,4,-10,6,-5,5,2,-3,-11,-8
-14,2,16,6,-14,9,-5,7,6,0,-8,-6
-15,2,17,6,-15,9,-5,8,8,1,-7,-6
-13,2,15,4,-13,8,-7,8,8,2,-7,-6
-9,3,12,3,-11,7,-8,7,8,2,-7,-7
-6,3,10,1,-9,6,-10,7,8,2,-7,-7
-4,4,9,0,-7,6,-11,7,8,2,-6,-7
-3,5,9,0,-6,7,-12,7,8,2,-6,-7
-3,5,9,-1,-6,7,-13,7,8,2,-6,-7
-3,5,9,-1,-7,7,-14,8,8,3,-6,-7
-4,5,9,-1,-7,7,-15,8,9,3,-6,-7
-5,5,9,-1,-7,7,-16,8,9,4,-6,-7
-5,5,9,0,-7,6,-15,9,10,4,-5,-6
-4,5,9,0,-7,6,-15,9,11,5,-4,-6
-4,5,9,0,-6,7,-14,10,11,6,-3,-5
-2,6,9,-1,-6,7,-14,12,12,6,-2,-4
-1,6,8,-2,-4,7,-13,13,13,7,-2,-3
-1,5,6,-2,-3,6,-13,13,13,7,-3,-3
-1,4,6,-1,-4,5,-13,13,13,7,-3,-4
-2,4,6,-1,-4,5,-13,14,14,7,-3,-4
-3,4,6,-1,-5,4,-12,14,14,8,-2,-4
-3,3,6,0,-5,4,-12,15,15,8,-2,-4
-3,3,6,0,-5,4,-12,15,15,8,-1,-4
-2,3,5,0,-3,3,-12,15,15,8,-1,-4
0,2,3,0,-2,2,-12,15,15,8,-1,-4
0,2,2,0,-1,2,-12,16,15,8,-1,-4
0,1,2,0,-1,1,-12,17,16,9,-1,-4
0,1,1,0,-1,1,-12,17,16,9,-1,-4
0,1,1,0,-1,0,-12,17,16,9,-1,-5
0,0,1,0,-1,0,-12,17,16,9,-1,-5
-1,0,1,0,-1,0,-12,17,16,9,-1,-4
-2,0,2,1,-2,0,-12,18,16,9,0,-4
-2,0,2,1,-2,0,-12,18,16,9,0,-4
-2,0,1,1,-2,0,-11,19,17,10,0,-3
-2,-1,1,1,-2,0,-11,20,18,10,0,-3
-4,-1,2,3,-3,0,-10,21,19,11,1,-3
-5,-1,3,3,-3,0,-9,22,20,12,1,-2
-4,-1,3,2,-3,0,-9,22,20,12,1,-2
-3,-2,1,2,-1,0,-9,21,20,11,0,-3
-1,-2,-1,1,0,-2,-9,20,19,10,-1,-5
0,-2,-2,1,1,-3,-9,20,18,10,-1,-5
0,-2,-3,1,1,-3,-9,20,18,9,-2,-6
1,-2,-3,1,2,-4,-9,21,19,9,-2,-6
2,-2,-4,0,3,-4,-9,21,19,9,-2,-6
1,-2,-4,0,2,-4,-8,21,19,9,-3,-7
0,-3,-4,1,2,-4,-8,22,19,9,-3,-7
1,-3,-4,1,2,-4,-7,22,19,9,-3,-8
1,-3,-4,1,2,-4,-7,23,20,9,-3,-8
0,-4,-3,1,1,-4,-6,24,21,10,-3,-8
-1,-4,-2,2,0,-3,-6,24,22,11,-3,-8
-2,-4,-2,3,0,-3,-5,25,22,11,-2,-8
-2,-4,-2,3,0,-3,-5,26,22,11,-2,-8
-1,-4,-3,2,1,-3,-4,26,23,11,-2,-8
-1,-3,-3,2,1,-3,-4,27,23,12,-2,-8
-2,-4,-2,2,0,-3,-3,27,24,12,-2,-8
-3,-4,-2,3,0,-3,-2,28,25,12,-2,-8
-3,-5,-2,4,0,-3,-2,30,26,13,-2,-8
-3,-5,-2,4,0,-3,-1,31,28,14,-1,-8
-3,-5,-2,4,0,-3,-1,32,29,15,-1,-7
-2,-5,-2,3,0,-3,-1,33,30,16,0,-7
-1,-4,-3,3,1,-3,0,34,31,17,0,-7
0,-4,-4,2,2,-3,0,34,32,17,0,-7
0,-3,-4,1,2,-3,0,35,33,17,0,-7
0,-3,-3,1,1,-3,1,36,34,18,0,-7
0,-3,-2,1,1,-2,2,38,36,19,0,-7
0,-3,-2,2,1,-2,2,39,37,20,0,-7
-1,-3,-2,2,0,-2,3,41,38,20,0,-7
0,-2,-2,2,0,-2,3,42,39,21,0,-8
0,-2,-2,2,1,-2,4,43,40,21,0,-8
-1,-3,-2,3,0,-2,4,44,42,22,0,-8
-2,-4,-2,3,0,-3,5,45,43,23,0,-8
-2,-4,-2,3,0,-3,5,46,45,24,1,-8
-2,-3,-1,2,0,-2,6,48,48,26,1,-8
-3,-3,1,3,-2,-1,7,51,50,27,2,-7
-4,-2,2,3,-3,0,7,52,52,28,2,-7
-2,-2,1,3,-1,-1,6,53,52,28,1,-8
0,-2,-2,2,1,-2,5,53,52,28,0,-10
1,-2,-4,1,3,-3,5,53,52,27,-1,-11
2,-3,-5,0,4,-4,5,53,53,27,-2,-11
4,-2,-6,0,5,-4,5,54,55,28,-2,-12
4,-2,-5,-1,5,-3,5,56,56,28,-2,-12
2,-2,-4,0,4,-3,5,58,58,29,-2,-12
1,-2,-3,0,3,-3,6,59,60,30,-2,-13
2,-1,-3,0,2,-2,6,60,61,31,-2,-13
2,0,-2,0,2,-2,7,61,63,32,-2,-13
1,0,-2,0,2,-1,7,61,64,33,-2,-13
0,0,0,0,0,0,7,62,65,33,-2,-12
-1,0,1,1,-1,0,7,63,67,34,-2,-12
-2,0,2,0,-1,1,8,64,68,34,-2,-13
-1,0,1,0,0,0,7,64,69,34,-3,-13
0,0,0,0,0,0,7,65,69,33,-4,-14
0,0,0,0,1,0,7,65,70,33,-4,-14
1,0,-1,0,1,-1,7,65,70,33,-5,-15
1,0,-2,0,2,-1,7,65,70,32,-5,-15
2,-1,-4,0,3,-2,6,64,69,31,-6,-16
2,-1,-5,0,4,-3,6,64,69,31,-6,-16
2,-1,-4,0,4,-3,6,64,69,32,-6,-16
2,-1,-4,0,3,-3,6,64,69,32,-6,-16
1,-2,-3,0,3,-3,6,64,69,32,-6,-16
0,-2,-2,1,1,-3,6,63,69,32,-6,-16
-1,-3,-1,2,0,-2,5,63,68,32,-7,-16
-1,-2,-1,1,0,-2,5,62,67,31,-7,-16
1,-1,-3,0,2,-2,4,61,66,30,-8,-16
2,-1,-4,-1,3,-2,4,60,65,30,-8,-16
1,-1,-4,0,3,-2,4,59,64,29,-8,-16
1,-2,-4,0,3,-3,3,57,62,28,-8,-16
2,-1,-4,-1,4,-3,3,55,61,27,-9,-16
3,0,-4,-1,4,-3,3,53,59,27,-9,-16
2,0,-2,-1,2,-2,3,51,58,27,-8,-15
-1,0,0,1,-1,0,3,50,57,27,-7,-14
-3,-1,2,2,-2,0,3,48,55,27,-7,-13
-2,-1,0,2,-1,-1,2,45,52,25,-7,-13
0,-1,-2,0,1,-2,1,42,48,23,-7,-13
1,-1,-2,0,2,-2,1,39,44,22,-6,-12
2,0,-2,0,2,-2,2,36,42,21,-6,-11
1,0,-1,0,1,-1,2,34,40,21,-5,-9
0,0,1,0,0,0,2,32,39,21,-3,-7
0,1,1,0,-1,0,2,31,37,20,-2,-6
1,1,0,-1,0,0,1,28,33,18,-1,-5
1,1,0,-1,1,0,0,25,30,17,-1,-4
0,1,0,0,0,0,0,23,27,16,0,-2
-1,0,1,0,-1,1,1,21,25,15,1,-1
-2,0,2,1,-2,1,2,20,24,15,1,0
-2,0,1,1,-1,0,3,18,21,13,1,0
0,0,0,0,0,-1,3,16,19,11,0,0
1,0,-1,0,1,-1,3,14,16,9,0,0
0,0,0,0,0,-1,4,13,14,8,0,0
-1,0,1,1,-1,0,5,12,13,7,0,0
0,0,0,0,0,0,5,10,11,6,0,0
2,1,-1,-2,2,0,5,9,9,5,0,0
4,2,-2,-3,3,0,6,7,7,4,-1,0
4,2,-2,-3,3,0,7,6,6,3,-1,0
4,2,-2,-3,3,0,8,5,6,2,-1,1
3,2,-1,-2,2,0,8,5,5,2,-1,1
2,2,0,-2,1,1,9,5,5,1,-1,1
0,3,2,-2,0,2,9,5,4,1,0,1
-1,3,5,-1,-3,4,9,4,4,1,0,2
-3,3,7,0,-5,5,10,4,3,0,0,2
-4,3,8,0,-6,6,10,3,2,0,0,2
-4,4,8,0,-6,6,10,2,2,0,-1,2
-3,4,6,0,-5,5,9,1,1,-1,-1,1
-2,4,5,0,-4,4,8,0,0,-2,-2,0
-2,4,5,0,-3,4,6,-1,-1,-3,-3,0
-2,4,5,-1,-3,4,5,-2,-2,-4,-4,-1
-2,4,6,-1,-3,4,5,-3,-2,-4,-4,-1
-2,5,7,-1,-4,5,4,-3,-3,-5,-4,0
-2,6,8,-1,-5,7,4,-4,-3,-5,-4,0
-4,6,10,-1,-7,8,3,-4,-3,-5,-4,0
-6,6,11,0,-8,8,3,-4,-3,-5,-4,0
-8,5,13,1,-10,9,2,-5,-3,-5,-4,0
-9,5,13,1,-11,9,1,-5,-4,-5,-4,0
-9,5,13,1,-11,9,0,-6,-4,-6,-5,0
-7,6,12,0,-9,9,-2,-7,-5,-6,-5,-1
-4,6,11,0,-7,8,-4,-7,-6,-7,-6,-1
-3,6,10,-1,-6,8,-5,-8,-7,-7,-7,-1
-3,5,9,-1,-6,7,-6,-8,-7,-8,-7,-2
-2,5,7,-1,-5,6,-7,-9,-8,-8,-8,-2
-2,5,6,-1,-4,6,-8,-9,-8,-8,-8,-2
-2,5,6,-1,-4,5,-7,-9,-8,-8,-8,-2
-2,5,7,-1,-4,5,-7,-8,-8,-8,-8,-2
-3,5,8,-1,-5,6,-7,-8,-7,-8,-8,-2
-4,5,9,0,-6,6,-7,-7,-7,-8,-8,-2
-5,4,9,0,-7,6,-7,-6,-6,-8,-8,-2
-4,4,9,0,-6,6,-7,-5,-6,-8,-8,-2
-4,3,8,0,-6,5,-7,-5,-6,-8,-8,-2
-5,3,7,1,-6,5,-7,-4,-6,-8,-8,-2
-5,2,7,1,-6,5,-7,-4,-5,-7,-8,-2
-5,2,6,1,-5,4,-7,-4,-5,-7,-8,-2
-4,1,4,1,-4,2,-8,-4,-5,-8,-8,-3
-3,0,2,1,-3,1,-9,-4,-5,-8,-9,-3
-2,0,2,1,-2,1,-10,-3,-5,-8,-9,-3
0,1,1,0,0,0,-10,-3,-5,-8,-9,-3
0,1,1,0,0,0,-10,-2,-5,-8,-8,-2
-1,0,2,0,-1,0,-9,-2,-4,-7,-8,-2
-3,0,3,1,-2,1,-8,-1,-4,-6,-7,-1
-4,0,3,2,-3,1,-7,-1,-3,-5,-7,-1
-4,-1,2,3,-3,0,-8,-1,-3,-5,-7,-1
-3,-2,0,3,-1,-2,-9,-1,-3,-6,-7,-2
-1,-3,-2,3,0,-3,-10,-2,-4,-6,-8,-2
-1,-4,-4,3,1,-4,-10,-2,-4,-7,-8,-3
0,-4,-4,2,2,-4,-10,-2,-4,-7,-8,-3
0,-4,-4,2,2,-4,-10,-1,-4,-7,-8,-3
0,-4,-4,2,2,-4,-10,-1,-3,-7,-8,-2
0,-4,-4,2,2,-4,-10,-1,-3,-7,-8,-2
0,-4,-4,2,2,-4,-10,-1,-3,-6,-7,-2
-1,-4,-3,2,1,-3,-9,0,-2,-6,-7,-2
-2,-4,-2,3,0,-3,-8,0,-1,-5,-6,-1
-2,-4,-1,3,0,-3,-8,0,-1,-4,-5,-1
-3,-5,-1,4,0,-3,-7,1,-1,-4,-5,-1
-2,-5,-1,4,0,-3,-7,1,-2,-4,-5,-1
-1,-4,-3,3,1,-3,-7,0,-2,-5,-6,-1
0,-4,-4,2,3,-4,-7,0,-2,-5,-6,-1
0,-5,-5,2,3,-5,-7,0,-2,-6,-6,-2
0,-5,-5,3,3,-5,-7,0,-2,-6,-6,-2
-1,-5,-4,3,2,-5,-7,0,-2,-5,-6,-2
-1,-5,-4,3,2,-5,-7,1,-2,-5,-5,-1
-1,-5,-4,3,1,-5,-6,1,-1,-4,-5,-1
-1,-5,-4,3,2,-5,-6,1,-1,-4,-5,-1
0,-6,-6,3,3,-6,-7,1,-2,-5,-6,-2
0,-6,-6,2,4,-6,-8,1,-2,-5,-6,-2
-2,-6,-5,3,2,-5,-8,1,-2,-5,-6,-2
-5,-6,-2,5,0,-4,-8,2,-1,-4,-6,-1
-7,-7,-1,6,-2,-3,-8,2,-1,-4,-5,-1
-8,-7,0,7,-4,-3,-8,2,0,-4,-5,-1
-8,-7,0,8,-4,-3,-8,3,0,-4,-4,0
-7,-7,0,7,-3,-3,-8,3,0,-3,-4,0
-7,-6,1,7,-4,-2,-7,4,1,-2,-3,1
-8,-6,1,7,-4,-2,-7,5,1,-2,-2,2
-7,-6,1,7,-4,-2,-7,5,1,-2,-2,2
-5,-6,-2,6,-1,-4,-9,4,0,-3,-4,1
-1,-6,-6,4,3,-6,-11,2,-1,-4,-5,0
1,-6,-8,2,5,-7,-12,0,-3,-5,-6,-2
2,-6,-9,2,5,-7,-12,0,-4,-6,-7,-3
2,-6,-8,2,5,-7,-13,0,-4,-6,-7,-4
2,-6,-8,2,5,-7,-13,0,-3,-6,-7,-4
2,-6,-7,2,5,-7,-13,1,-2,-6,-7,-4
2,-6,-7,2,5,-7,-13,1,-2,-6,-7,-4
1,-6,-7,2,5,-7,-13,1,-2,-6,-8,-4
1,-6,-7,2,4,-7,-14,1,-2,-6,-8,-4
0,-6,-6,3,3,-6,-14,2,-2,-6,-7,-3
-1,-6,-5,4,2,-5,-13,2,-2,-5,-7,-3
-2,-7,-4,4,1,-5,-13,2,-2,-5,-7,-3
-2,-7,-4,5,1,-5,-13,2,-2,-5,-7,-3
-2,-8,-5,5,2,-6,-13,1,-3,-6,-8,-3
-1,-8,-6,4,3,-6,-13,1,-3,-6,-8,-3
-2,-8,-6,5,2,-6,-13,1,-3,-5,-8,-3
-4,-8,-4,6,0,-6,-13,2,-2,-5,-7,-2
-7,-8,-2,7,-2,-5,-13,2,-2,-4,-7,-2
-9,-9,-1,8,-3,-5,-13,2,-2,-4,-7,-2
-8,-9,-1,8,-2,-5,-13,2,-2,-4,-7,-2
-6,-8,-3,7,-1,-6,-14,2,-3,-4,-8,-3
-5,-8,-4,6,0,-6,-15,1,-3,-5,-8,-3
-4,-9,-5,6,1,-7,-15,1,-4,-6,-9,-3
-4,-9,-6,6,1,-7,-15,1,-4,-6,-9,-4
-4,-9,-5,6,1,-7,-15,1,-4,-6,-9,-4
-3,-8,-5,6,2,-7,-15,1,-4,-6,-9,-4
-2,-8,-7,5,3,-8,-15,1,-4,-7,-10,-4
0,-8,-9,4,5,-9,-16,0,-5,-8,-10,-5
-1,-9,-9,5,4,-9,-16,0,-5,-7,-10,-5
-3,-9,-7,6,2,-8,-15,1,-4,-6,-10,-5
-4,-9,-6,6,2,-8,-14,2,-3,-5,-9,-4
-4,-10,-7,6,2,-8,-14,2,-3,-5,-10,-5
-4,-11,-8,7,3,-9,-13,4,-1,-4,-10,-5
-4,-12,-8,8,3,-10,-12,8,2,-3,-10,-6
-5,-13,-9,9,3,-11,-11,12,7,0,-10,-8
-5,-14,-9,10,3,-12,-9,16,11,2,-10,-9
-5,-13,-9,9,3,-12,-8,19,15,5,-10,-10
-5,-13,-9,9,2,-11,-7,21,19,11,-8,-9
-5,-12,-8,8,2,-10,-7,23,24,18,-3,-7
-4,-10,-7,7,2,-9,-8,24,30,27,3,-4
-2,-7,-6,4,2,-6,-9,25,37,38,13,2
0,-3,-4,1,3,-3,-12,24,43,50,25,10
3,1,-2,-2,3,0,-15,19,45,63,39,19
5,5,0,-6,3,2,-20,11,41,73,53,30
7,9,1,-8,3,4,-24,1,34,82,68,43
9,12,2,-11,4,6,-28,-9,22,88,85,57
13,15,1,-14,6,8,-32,-21,5,90,101,72
18,19,0,-19,9,10,-38,-35,-16,89,118,88
24,25,0,-25,12,13,-44,-49,-38,86,137,106
30,32,1,-31,15,16,-52,-64,-61,82,158,128
35,38,1,-37,17,20,-62,-81,-83,78,181,151
41,44,2,-43,20,23,-73,-100,-104,75,205,175
47,52,3,-50,22,27,-84,-119,-124,71,229,199
52,59,5,-56,24,32,-94,-137,-142,67,250,221
55,65,7,-61,24,36,-102,-154,-158,61,267,239
57,69,9,-64,25,40,-108,-169,-173,50,272,248
58,70,10,-65,25,41,-111,-180,-188,31,262,246
57,68,10,-63,24,40,-111,-189,-204,4,235,232
53,65,11,-59,22,38,-110,-197,-221,-30,196,209
46,61,13,-54,17,37,-108,-206,-240,-71,146,179
36,54,16,-45,10,35,-104,-215,-259,-115,87,141
25,44,17,-35,4,31,-99,-222,-276,-159,24,99
16,31,14,-24,1,23,-95,-228,-290,-197,-33,58
8,17,7,-13,0,12,-90,-227,-296,-225,-83,19
1,0,-1,-1,1,0,-82,-219,-293,-242,-121,-15
-5,-15,-9,10,2,-12,-72,-205,-281,-246,-144,-43
-10,-27,-16,18,3,-22,-63,-188,-265,-241,-156,-61
-13,-35,-21,24,3,-28,-55,-172,-247,-231,-159,-73
-16,-39,-23,27,3,-31,-49,-156,-229,-219,-159,-82
-18,-42,-24,30,3,-33,-44,-141,-210,-205,-156,-88
-20,-43,-24,31,2,-34,-41,-126,-190,-188,-150,-91
-21,-43,-23,32,1,-33,-38,-111,-169,-169,-139,-89
-21,-41,-20,31,0,-31,-34,-96,-147,-148,-126,-84
-23,-37,-14,30,-4,-26,-30,-81,-126,-127,-111,-76
-24,-32,-7,28,-8,-20,-26,-68,-105,-106,-96,-68
-24,-26,-1,26,-12,-14,-23,-55,-87,-89,-83,-60
-25,-21,4,23,-14,-8,-20,-44,-71,-73,-71,-52
-24,-15,8,20,-16,-4,-18,-33,-57,-60,-61,-44
-23,-11,10,17,-16,-1,-16,-24,-44,-48,-53,-38
-21,-9,10,15,-15,0,-14,-17,-34,-38,-46,-33
-20,-7,11,14,-15,1,-12,-11,-26,-29,-39,-28
-18,-5,12,12,-15,3,-11,-6,-19,-21,-32,-24
-14,-3,11,8,-12,4,-12,-3,-13,-15,-26,-20
-8,0,8,4,-8,4,-13,-2,-9,-11,-22,-17
-4,1,6,1,-5,4,-15,0,-7,-8,-20,-16
-2,2,4,0,-3,4,-16,1,-4,-6,-18,-14
-2,3,5,0,-3,4,-17,3,-1,-3,-17,-13
-3,4,6,-1,-4,5,-17,4,1,-1,-15,-11
-4,4,7,-1,-5,5,-18,5,3,1,-13,-10
-5,4,9,0,-7,6,-18,6,5,3,-11,-9
-6,4,11,1,-8,7,-18,7,6,5,-9,-8
-6,4,11,1,-9,7,-19,7,6,6,-8,-7
-6,4,12,1,-9,8,-19,8,7,6,-8,-6
-7,4,12,1,-9,8,-19,9,8,7,-7,-6
-8,4,12,1,-9,8,-18,10,9,8,-7,-5
-9,4,12,2,-10,8,-18,11,11,8,-7,-5
-9,4,13,2,-11,8,-18,12,12,9,-7,-6
-9,5,12,1,-10,8,-18,12,12,9,-7,-6
-7,5,12,1,-9,8,-18,12,12,9,-7,-6
-5,4,10,0,-7,7,-18,12,11,8,-7,-6
-3,4,7,0,-4,5,-19,11,10,8,-8,-7
-1,3,4,0,-3,3,-20,11,10,7,-8,-8
-2,2,4,0,-3,2,-20,12,11,8,-7,-7
-3,1,4,1,-3,2,-19,13,12,8,-7,-7
-2,1,3,0,-2,2,-19,14,13,9,-6,-6
-1,1,2,-1,-1,1,-19,15,14,10,-6,-6
0,1,1,-1,0,1,-19,15,14,11,-6,-6
0,1,2,-1,-1,1,-19,15,14,11,-6,-6
-1,1,2,0,-2,2,-19,16,14,11,-5,-5
-2,1,3,0,-3,2,-20,16,15,11,-5,-5
-2,1,3,0,-3,2,-20,17,15,11,-5,-5
-3,0,2,1,-2,1,-21,17,15,11,-5,-6
-2,0,2,1,-2,0,-20,18,16,12,-5,-6
-2,-1,1,1,-1,0,-20,18,16,12,-5,-6
-2,-1,0,1,0,-1,-21,18,16,12,-5,-6
-2,-2,0,2,0,-1,-21,18,17,12,-4,-5
-2,-2,0,2,0,-2,-19,19,17,13,-4,-5
-2,-3,0,2,0,-2,-18,19,17,13,-4,-5
-2,-3,-1,2,0,-2,-18,19,17,12,-4,-5
-1,-3,-1,2,0,-3,-18,19,17,12,-4,-5
-1,-3,-2,2,0,-3,-19,19,17,12,-4,-5
-1,-4,-3,2,1,-4,-19,19,17,12,-5,-6
0,-4,-4,2,2,-4,-18,20,18,12,-5,-6
-1,-4,-4,2,2,-4,-18,20,18,12,-5,-6
-2,-4,-2,3,0,-3,-18,21,18,12,-5,-6
-3,-3,0,3,-1,-2,-17,22,19,12,-4,-5
-3,-3,0,3,-1,-2,-16,23,20,13,-4,-5
-3,-4,-1,3,0,-3,-17,23,20,13,-4,-6
-3,-4,-1,4,0,-3,-16,23,21,13,-4,-6
-2,-4,-2,4,0,-3,-16,24,21,13,-5,-6
-2,-4,-2,3,0,-3,-16,24,21,13,-5,-6
-2,-5,-2,3,0,-3,-15,24,21,13,-5,-7
-3,-5,-2,4,0,-4,-15,24,21,13,-5,-7
-3,-6,-3,4,0,-5,-14,24,21,13,-5,-8
-2,-6,-4,4,1,-6,-14,24,21,13,-6,-8
-2,-6,-4,5,1,-6,-14,25,22,13,-6,-9
-3,-6,-4,5,0,-6,-14,27,24,14,-6,-9
-3,-6,-3,5,0,-5,-14,28,24,14,-6,-9
-3,-6,-3,5,0,-5,-14,28,25,15,-6,-9
-3,-5,-3,5,0,-4,-13,29,25,15,-6,-9
-3,-5,-4,4,0,-4,-13,29,26,16,-6,-9
-1,-5,-4,3,1,-4,-13,30,26,16,-5,-9
-1,-5,-4,3,1,-4,-12,31,27,16,-5,-9
-1,-4,-4,2,1,-4,-11,32,29,17,-4,-8
-1,-4,-3,2,1,-4,-10,34,30,18,-3,-8
-3,-4,-2,3,0,-4,-10,35,32,19,-3,-7
-4,-5,-2,4,-1,-4,-9,36,33,20,-3,-7
-4,-5,-2,4,0,-4,-9,36,33,21,-3,-8
-2,-6,-4,3,1,-5,-9,36,34,21,-4,-8
-1,-6,-5,3,2,-6,-8,37,34,21,-4,-9
0,-5,-5,3,3,-5,-6,38,36,21,-4,-9
0,-5,-5,3,2,-5,-3,39,38,22,-4,-10
-1,-5,-4,3,1,-4,0,41,39,23,-4,-10
-2,-5,-3,3,0,-4,2,42,40,24,-4,-10
-2,-4,-3,2,1,-4,3,43,41,24,-4,-10
0,-4,-5,2,2,-5,4,43,42,24,-5,-11
0,-5,-6,2,3,-5,6,44,42,25,-5,-12
0,-5,-6,3,3,-5,8,46,44,26,-5,-12
0,-5,-6,3,3,-5,10,47,46,27,-4,-12
0,-4,-5,2,3,-5,12,49,48,28,-4,-12
1,-4,-5,1,3,-4,14,51,50,29,-4,-12
1,-4,-5,0,4,-5,15,52,52,30,-4,-12
1,-4,-5,0,4,-5,15,53,53,31,-3,-12
1,-4,-4,1,3,-5,15,54,54,32,-3,-12
0,-3,-4,1,3,-4,16,55,55,33,-3,-12
0,-2,-3,1,2,-3,17,57,57,33,-2,-12
0,-1,-3,1,2,-3,18,58,58,34,-2,-12
0,-1,-2,1,1,-3,19,60,60,34,-3,-13
0,-2,-2,1,1,-3,20,61,61,34,-3,-13
0,-2,-2,0,1,-3,20,61,62,34,-3,-14
0,-2,-3,0,2,-3,21,62,63,35,-4,-14
0,-2,-3,0,2,-3,21,63,64,36,-4,-14
0,-2,-3,1,1,-3,22,64,65,37,-4,-14
-1,-2,-2,1,1,-3,24,65,66,37,-4,-14
-2,-2,-1,2,0,-2,24,66,67,38,-4,-14
-3,-3,0,3,-1,-2,25,66,67,38,-4,-14
-5,-3,1,4,-3,-1,25,67,68,38,-4,-14
-6,-4,2,4,-4,-1,26,67,68,38,-4,-14
-3,-4,0,3,-1,-3,25,66,68,37,-6,-15
0,-4,-3,2,2,-4,24,65,67,36,-7,-16
1,-4,-4,1,3,-4,23,64,66,35,-8,-17
1,-3,-4,1,3,-4,23,64,66,35,-8,-17
2,-2,-4,0,4,-3,23,64,66,35,-9,-17
3,-2,-5,0,4,-3,23,64,65,34,-9,-17
2,-2,-5,0,4,-4,23,63,65,34,-9,-17
2,-2,-5,0,4,-4,23,63,65,34,-10,-17
1,-2,-5,0,3,-4,23,63,65,34,-10,-17
0,-2,-4,0,2,-3,23,63,65,34,-9,-17
-1,-2,-2,1,1,-2,23,63,65,35,-9,-17
-1,-2,-1,1,0,-2,23,62,64,35,-9,-17
0,-1,-1,0,1,-1,23,61,63,34,-9,-17
0,-1,-2,0,1,-2,22,59,61,33,-9,-17
1,-1,-3,0,2,-2,21,57,59,32,-9,-17
2,-1,-3,-1,3,-3,20,54,57,31,-10,-17
2,-1,-4,-1,3,-3,20,52,55,30,-10,-16
2,0,-4,-1,3,-2,20,50,53,29,-9,-16
1,0,-3,-1,2,-2,19,48,51,29,-9,-15
0,0,-2,0,1,-2,19,46,48,29,-8,-14
0,0,-1,0,1,-1,19,44,46,28,-7,-13
-1,0,0,0,0,0,19,42,44,28,-6,-11
-2,0,2,0,-1,0,18,40,42,28,-5,-9
-1,1,2,0,-1,1,18,37,39,27,-4,-8
0,3,3,-1,-1,2,18,35,37,26,-3,-7
-1,3,4,-1,-2,3,18,32,34,24,-2,-6
-3,3,5,0,-3,3,18,30,32,23,-1,-5
-3,2,3,0,-3,2,18,28,29,22,-2,-4
0,2,0,-2,0,1,17,26,25,19,-2,-4
2,2,-1,-3,2,0,16,23,22,17,-2,-4
2,2,-1,-3,2,0,16,21,20,16,-2,-2
2,2,0,-3,1,1,17,19,18,14,-1,-1
2,3,0,-3,1,1,17,17,16,13,-1,-1
1,3,2,-3,0,2,18,16,15,13,-1,0
-1,3,4,-2,-2,3,19,15,13,12,-1,0
-3,3,5,-1,-3,3,20,14,12,12,-1,0
-4,3,7,0,-5,4,21,14,11,11,0,1
-5,3,8,0,-6,5,22,13,11,11,0,2
-4,4,7,-1,-6,6,22,12,10,11,0,2
-2,5,7,-2,-5,6,22,11,8,10,0,2
-2,5,7,-2,-5,7,22,10,7,9,0,2
-2,6,7,-2,-5,7,22,9,6,8,-1,1
-1,6,8,-3,-4,7,21,7,5,7,-2,0
-1,7,8,-3,-4,7,20,6,4,6,-2,0
0,7,7,-4,-3,7,19,5,2,5,-3,-1
0,7,6,-4,-2,6,17,3,0,3,-4,-1
0,7,6,-4,-2,6,16,1,0,2,-5,-1
0,7,6,-4,-3,6,15,0,-1,1,-5,-1
-1,6,7,-3,-4,6,14,0,-2,1,-5,-1
-2,6,8,-2,-4,6,14,-1,-3,0,-6,-1
-3,6,8,-2,-5,6,13,-2,-4,0,-6,-1
-3,6,8,-2,-5,6,12,-3,-4,0,-6,-1
-4,6,9,-1,-6,6,11,-3,-5,0,-6,-1
-5,5,10,0,-7,7,11,-3,-5,0,-6,-1
-7,5,11,0,-8,8,10,-3,-5,-1,-6,-1
-10,5,14,2,-11,9,9,-3,-5,-1,-6,-1
-10,6,15,2,-12,10,8,-4,-5,-1,-6,-1
-8,6,14,0,-10,10,6,-5,-6,-1,-6,-2
-5,7,12,-1,-8,10,5,-5,-7,-2,-7,-2
-3,7,12,-2,-7,10,5,-5,-6,-2,-7,-2
-2,8,11,-3,-6,10,4,-5,-6,-2,-7,-2
-2,8,10,-3,-6,9,4,-5,-6,-2,-8,-2
-1,8,9,-3,-5,9,4,-5,-6,-3,-9,-2
-1,8,8,-3,-5,8,3,-5,-7,-4,-9,-3
-1,8,8,-3,-4,7,3,-5,-8,-5,-9,-4
-2,7,8,-2,-5,7,3,-5,-8,-5,-9,-4
-3,6,8,-1,-5,7,3,-5,-8,-5,-9,-4
-3,5,8,-1,-5,6,2,-4,-7,-5,-10,-4
-2,5,6,-1,-3,5,2,-4,-7,-5,-11,-5
-2,4,5,-1,-3,5,2,-4,-7,-5,-11,-5
-2,4,5,-1,-3,5,3,-4,-7,-5,-11,-5
-3,4,6,-1,-4,4,3,-3,-6,-5,-10,-4
-3,3,6,0,-4,4,3,-2,-6,-4,-10,-4
-4,2,6,0,-4,3,3,-1,-5,-4,-9,-4
-4,2,6,0,-4,3,4,-1,-5,-4,-9,-4
-4,2,6,1,-4,3,4,-1,-4,-3,-9,-3
-4,1,5,1,-4,3,3,-1,-4,-3,-9,-3
-5,0,5,2,-4,3,3,-1,-4,-3,-9,-4
-6,0,6,3,-6,3,3,0,-4,-3,-9,-4
-6,0,6,3,-6,3,3,0,-3,-2,-9,-4
-3,0,2,1,-3,1,2,-1,-4,-3,-10,-5
0,-1,-1,0,1,-1,1,-2,-5,-5,-11,-7
0,-1,-2,0,2,-1,1,-2,-6,-5,-11,-7
0,-2,-1,1,1,-2,2,-1,-5,-5,-11,-6
-1,-2,-1,1,1,-2,2,-1,-5,-5,-10,-6
0,-3,-2,1,1,-3,2,-1,-5,-5,-10,-5
-1,-3,-2,2,1,-4,2,-1,-4,-4,-10,-5
-2,-4,-1,2,0,-3,3,0,-3,-4,-9,-4
-2,-4,-1,2,0,-3,3,0,-3,-4,-10,-5
-2,-5,-2,3,0,-4,3,0,-3,-4,-11,-6
-3,-5,-2,3,0,-4,3,0,-3,-5,-11,-6
-3,-5,-1,3,0,-3,4,0,-3,-5,-11,-6
-3,-4,-1,3,0,-2,5,1,-3,-4,-10,-6
-2,-3,0,2,0,-2,6,1,-2,-4,-10,-6
-2,-3,0,3,0,-2,6,1,-3,-4,-10,-6
-3,-3,0,3,-1,-2,6,1,-3,-4,-10,-6
-4,-4,0,4,-2,-1,6,1,-2,-3,-9,-6
-7,-4,3,6,-5,0,7,2,-1,-3,-8,-5
-9,-4,5,7,-7,0,8,4,0,-2,-7,-4
-10,-4,7,7,-8,1,8,4,0,-1,-6,-3
-10,-4,6,7,-7,0,8,4,0,-2,-7,-4
-6,-4,1,5,-3,-2,7,2,-1,-3,-8,-5
0,-5,-4,3,2,-5,5,0,-3,-5,-10,-6
2,-5,-8,2,5,-7,4,0,-4,-5,-10,-7
3,-5,-8,1,6,-7,4,0,-4,-5,-10,-7
2,-5,-8,1,5,-7,4,0,-4,-5,-10,-7
2,-5,-7,1,5,-7,4,0,-4,-6,-11,-7
2,-5,-7,1,5,-7,4,0,-3,-5,-10,-7
1,-5,-6,2,4,-6,5,1,-2,-3,-9,-7
0,-5,-5,3,2,-5,6,1,-2,-3,-9,-7
-1,-5,-4,4,1,-5,7,1,-2,-3,-9,-7
-2,-5,-3,4,1,-4,7,2,-1,-3,-9,-6
-2,-4,-3,3,0,-3,8,3,-1,-3,-8,-6
-1,-4,-3,3,1,-3,8,3,-1,-3,-8,-5
-1,-5,-3,3,1,-3,8,3,-2,-3,-8,-6
-2,-6,-4,3,0,-4,8,3,-2,-3,-8,-6
-3,-6,-3,4,0,-4,8,3,-1,-2,-8,-6
-3,-6,-3,4,0,-4,8,4,-1,-2,-7,-5
-5,-6,-2,5,-1,-4,9,4,-1,-2,-7,-5
-7,-6,0,6,-2,-3,9,4,0,-1,-7,-5
-7,-6,0,6,-2,-3,9,3,0,0,-7,-5
-5,-6,-1,5,-1,-4,9,3,0,-1,-7,-5
-3,-6,-3,4,0,-5,9,2,-1,-2,-8,-6
-2,-6,-5,3,2,-5,9,2,-1,-2,-8,-6
0,-6,-6,2,3,-6,8,2,-2,-3,-9,-7
0,-6,-6,2,4,-6,8,2,-2,-3,-9,-7
0,-6,-6,3,3,-6,8,1,-2,-3,-9,-7
-1,-7,-5,4,2,-7,8,1,-2,-4,-9,-7
-2,-7,-5,4,2,-7,8,1,-3,-5,-10,-8
-2,-8,-5,5,2,-7,7,1,-3,-5,-11,-8
-3,-8,-5,5,1,-6,7,1,-3,-5,-11,-8
-3,-8,-4,5,1,-6,8,1,-3,-5,-10,-8
-3,-7,-4,5,0,-5,8,1,-2,-4,-10,-8
-3,-7,-4,5,0,-5,8,1,-2,-4,-10,-8
-3,-6,-4,4,1,-5,8,1,-2,-5,-10,-7
-2,-6,-5,4,1,-6,8,1,-2,-5,-10,-7
-1,-6,-6,4,2,-7,8,1,-2,-5,-10,-7
0,-6,-7,4,3,-7,8,1,-2,-5,-10,-7
-2,-7,-6,5,2,-7,8,1,-2,-5,-9,-7
-5,-7,-3,6,-1,-6,9,2,-1,-4,-8,-6
-8,-8,0,8,-3,-4,10,3,-1,-3,-8,-6
-9,-8,1,8,-4,-4,10,3,0,-2,-8,-6
-9,-8,1,8,-4,-4,11,3,0,-2,-8,-6
-8,-8,0,8,-4,-4,11,3,0,-2,-8,-6
-7,-9,-1,8,-2,-5,11,3,0,-3,-9,-7
