"leadI","leadII","leadIII","leadaVR","leadaVL","leadaVF","leadV1","leadV2","leadV3","leadV4","leadV5","leadV6"
0,1,0,0,0,1,0,0,1,0,0,0
1,2,1,-2,0,2,-1,0,2,0,0,-1
1,3,2,-3,0,3,-1,0,2,-1,0,-2
2,4,3,-3,0,3,-1,0,3,-2,-1,-3
1,4,3,-3,-1,3,-1,0,3,-3,-1,-3
0,3,3,-1,-1,3,-1,0,2,-4,-2,-4
-1,2,3,0,-2,2,-1,0,2,-4,-3,-5
-1,1,3,0,-2,2,-1,0,2,-5,-4,-6
-1,1,3,0,-2,2,-1,0,2,-5,-4,-6
-1,1,3,0,-2,2,-1,0,2,-5,-4,-7
0,2,3,0,-2,2,-1,0,2,-6,-5,-7
0,2,3,0,-2,2,-1,0,2,-6,-5,-8
-1,1,3,0,-2,2,-1,0,2,-6,-6,-8
-1,1,3,0,-2,2,-2,0,2,-6,-6,-8
-2,0,3,1,-2,2,-2,0,2,-6,-6,-8
-3,0,3,2,-2,1,-2,0,2,-6,-6,-8
-3,0,3,2,-2,1,-2,0,2,-6,-7,-8
-2,0,2,2,-2,0,-2,0,2,-6,-7,-8
-1,0,2,1,-2,0,-1,0,2,-6,-7,-8
-1,0,2,0,-2,0,0,0,2,-6,-7,-8
-1,1,2,0,-2,0,0,0,2,-6,-7,-8
-1,1,2,0,-2,0,1,0,2,-6,-7,-8
-1,1,2,0,-2,1,1,0,3,-6,-7,-8
-1,1,2,0,-2,1,1,0,3,-5,-7,-8
-1,1,2,0,-2,1,1,0,3,-5,-7,-8
-1,1,2,0,-2,0,1,0,3,-4,-7,-8
-1,0,2,0,-2,0,1,0,3,-4,-7,-8
-1,0,2,0,-2,0,2,0,3,-4,-7,-8
-1,0,1,0,-2,0,2,0,3,-4,-7,-8
-2,0,1,0,-2,0,2,0,3,-4,-7,-8
-2,0,1,1,-2,0,1,0,3,-4,-7,-8
-2,0,1,1,-2,0,1,0,3,-4,-7,-8
-2,0,1,1,-2,0,1,0,3,-4,-7,-8
-2,0,1,1,-2,0,2,0,4,-4,-7,-8
-2,0,1,1,-2,0,2,0,4,-3,-7,-8
-2,0,2,1,-2,0,2,0,4,-3,-7,-8
-2,0,2,1,-2,0,2,0,4,-2,-7,-8
-2,0,1,1,-2,0,2,0,4,-2,-6,-8
-2,0,1,1,-2,0,2,0,4,-2,-6,-8
-2,-1,1,2,-2,0,2,0,4,-2,-6,-8
-3,-1,1,2,-2,0,2,0,4,-2,-6,-8
-3,-1,1,2,-2,0,2,0,4,-2,-6,-8
-3,-1,1,2,-2,0,2,0,4,-2,-6,-7
-3,-1,1,1,-2,0,2,0,4,-2,-6,-7
-3,-1,1,1,-2,0,2,0,4,-1,-6,-7
-2,-1,1,1,-2,0,2,0,4,-1,-6,-7
-2,0,1,1,-2,0,2,0,4,-1,-5,-7
-2,0,2,1,-2,1,2,0,4,0,-5,-7
-2,1,2,0,-2,1,2,0,4,0,-5,-7
-1,1,2,0,-2,2,2,1,5,0,-4,-6
-1,2,2,0,-2,2,2,1,5,0,-4,-6
-1,2,2,0,-2,2,3,1,6,1,-3,-5
-1,2,2,0,-2,2,3,2,6,1,-3,-4
-1,2,2,0,-2,2,4,2,7,2,-2,-4
-1,2,2,0,-2,2,4,2,7,2,-2,-3
-1,2,2,-1,-2,2,4,3,8,3,-1,-3
0,3,3,-1,-2,2,4,3,8,3,-1,-3
0,3,3,-2,-2,3,4,3,8,3,-1,-3
0,4,3,-2,-2,3,3,2,8,3,-1,-3
0,4,4,-2,-2,4,2,2,8,3,-1,-3
0,5,4,-2,-3,4,2,1,8,4,-1,-3
0,5,5,-2,-3,5,1,1,8,4,-1,-2
0,6,5,-3,-3,5,1,1,8,4,-1,-2
0,6,5,-3,-3,5,0,1,8,4,-1,-2
0,6,5,-3,-3,5,0,1,8,4,-1,-1
0,6,5,-3,-2,5,0,1,8,5,0,0
1,6,5,-4,-2,5,-1,1,8,5,0,0
2,7,4,-4,-1,5,-2,0,8,6,0,1
2,7,4,-5,-1,5,-3,0,8,6,1,1
3,7,4,-5,-1,6,-3,0,8,6,1,1
3,7,4,-5,-1,6,-4,-1,7,6,1,1
2,7,4,-5,-1,6,-4,-1,7,5,0,1
2,7,4,-5,-1,6,-4,-2,6,5,0,1
2,7,4,-5,-1,6,-5,-2,6,5,0,1
2,7,4,-5,-1,5,-5,-3,5,4,0,1
2,7,4,-5,-1,5,-5,-4,5,4,-1,0
2,7,4,-5,-1,6,-5,-4,4,3,-1,0
3,8,4,-5,-1,6,-5,-5,4,3,-1,0
3,8,4,-5,0,6,-6,-5,4,3,-1,0
4,8,4,-6,0,6,-6,-5,4,3,-1,0
4,8,4,-6,0,6,-5,-5,4,3,-2,0
5,8,3,-6,1,5,-5,-5,4,3,-2,0
5,7,2,-6,1,4,-5,-4,4,2,-2,1
6,7,1,-6,2,4,-4,-4,4,3,-1,2
6,7,0,-7,3,3,-4,-3,4,3,-1,3
7,6,-1,-7,4,2,-4,-3,4,3,-1,3
7,5,-2,-6,5,1,-4,-3,4,3,-1,3
8,4,-3,-6,5,0,-4,-3,4,3,-1,3
8,4,-4,-6,6,0,-3,-3,4,3,-1,3
8,3,-4,-6,7,-1,-3,-3,4,3,-1,3
8,3,-5,-5,7,-1,-3,-3,4,2,-1,3
7,3,-5,-5,6,-1,-2,-3,4,2,-2,2
6,3,-4,-4,5,-1,-1,-3,4,2,-2,2
5,2,-4,-3,4,-1,0,-2,4,2,-2,1
3,1,-3,-2,2,-1,1,-2,4,2,-3,1
2,0,-2,-1,1,-1,2,-2,4,2,-3,0
0,0,-2,0,1,-1,3,-2,4,2,-4,0
-1,-1,-1,0,0,-1,3,-2,4,2,-5,-1
-2,-2,-1,1,0,-1,3,-2,4,2,-6,-1
-2,-3,-1,2,0,-2,3,-2,4,1,-6,-2
-3,-3,-1,3,0,-2,3,-2,4,1,-7,-3
-3,-4,-1,3,0,-2,3,-2,3,0,-7,-4
-3,-4,-2,3,0,-2,3,-2,3,0,-8,-4
-2,-4,-2,3,0,-2,3,-2,3,0,-8,-4
-2,-4,-2,3,0,-2,3,-2,3,0,-8,-4
-2,-4,-2,3,0,-3,3,-2,3,0,-8,-4
-2,-4,-2,3,0,-3,4,-2,3,0,-8,-4
-2,-4,-2,3,0,-3,4,-2,3,0,-8,-4
-2,-5,-2,3,0,-4,4,-2,3,0,-8,-4
-2,-5,-2,3,0,-4,4,-2,3,0,-8,-4
-2,-5,-2,3,0,-4,4,-2,2,0,-8,-4
-3,-5,-2,3,0,-4,3,-3,2,0,-9,-4
-3,-6,-3,4,0,-4,3,-3,2,0,-9,-4
-3,-6,-3,4,0,-4,4,-3,2,0,-9,-5
-3,-6,-3,4,0,-3,4,-3,2,0,-9,-5
-3,-6,-3,4,0,-4,3,-3,2,0,-9,-5
-3,-6,-3,4,0,-4,3,-3,2,0,-9,-5
-2,-6,-3,4,0,-5,3,-3,2,0,-9,-5
-2,-6,-3,4,0,-5,3,-3,2,0,-9,-5
-3,-7,-3,5,0,-5,4,-3,3,0,-9,-5
-3,-7,-4,5,0,-5,4,-2,3,0,-9,-5
-4,-7,-4,5,0,-5,4,-2,3,0,-9,-5
-3,-7,-4,5,0,-5,4,-2,3,0,-9,-5
-3,-7,-4,4,0,-5,4,-2,3,0,-9,-5
-3,-7,-4,4,0,-5,4,-2,3,0,-9,-5
-3,-6,-4,4,0,-5,4,-1,4,1,-8,-5
-2,-6,-4,3,1,-5,4,1,6,2,-8,-5
-1,-6,-4,3,1,-5,5,6,11,4,-6,-4
0,-6,-5,2,2,-5,6,12,16,7,-4,-3
1,-5,-6,1,4,-6,6,18,20,10,-2,-1
2,-5,-7,0,5,-6,6,20,23,12,0,0
4,-4,-8,0,6,-6,6,21,24,15,1,1
5,-2,-7,-2,6,-5,5,17,23,17,3,2
4,-1,-5,-2,5,-3,4,8,17,17,4,3
2,1,0,-2,1,0,4,-8,4,14,4,4
-1,3,5,-1,-3,3,3,-28,-13,7,2,5
-5,5,10,0,-8,7,3,-47,-32,-1,0,5
-8,7,15,0,-11,11,2,-65,-51,-10,-1,6
-10,10,20,0,-15,15,0,-85,-70,-19,-2,7
-12,14,26,-1,-18,19,-5,-107,-90,-30,-4,8
-13,18,30,-2,-21,24,-12,-129,-111,-41,-6,11
-12,21,33,-3,-22,27,-21,-151,-131,-52,-6,14
-12,23,35,-5,-23,28,-31,-171,-149,-62,-6,19
-11,25,36,-7,-23,30,-42,-189,-165,-71,-6,24
-9,27,37,-9,-23,32,-52,-203,-179,-80,-6,29
-7,31,38,-11,-23,34,-59,-212,-189,-88,-6,33
-6,34,40,-14,-23,37,-66,-218,-197,-96,-6,37
-4,38,42,-16,-23,40,-71,-222,-204,-104,-7,40
-3,40,43,-18,-23,41,-75,-225,-209,-111,-8,43
-2,41,44,-19,-22,42,-79,-229,-214,-119,-9,46
-2,41,44,-19,-23,42,-82,-231,-217,-126,-12,48
-3,40,44,-18,-23,41,-84,-233,-220,-132,-16,49
-4,40,45,-18,-24,41,-85,-235,-222,-138,-21,49
-6,40,47,-17,-26,43,-87,-237,-225,-144,-27,49
-8,41,50,-17,-29,45,-89,-239,-228,-151,-34,48
-10,42,53,-16,-31,47,-91,-240,-230,-158,-41,47
-12,44,57,-16,-34,50,-92,-239,-231,-163,-47,45
-13,46,60,-16,-36,52,-92,-237,-231,-168,-54,43
-14,48,63,-16,-38,54,-93,-233,-229,-171,-61,41
-14,50,65,-17,-39,56,-93,-227,-225,-172,-67,39
-15,51,67,-18,-40,58,-92,-220,-219,-170,-70,39
-15,52,67,-18,-40,59,-90,-210,-210,-166,-71,39
-15,51,66,-18,-40,58,-87,-197,-199,-160,-70,41
-15,49,63,-18,-38,56,-82,-184,-186,-152,-67,43
-14,46,59,-16,-36,52,-76,-170,-173,-143,-63,45
-12,41,53,-15,-32,47,-70,-156,-160,-133,-58,47
-10,36,46,-13,-27,40,-65,-143,-147,-124,-54,49
-8,30,39,-11,-23,34,-61,-131,-136,-116,-50,51
-7,24,31,-9,-18,27,-56,-120,-125,-108,-46,53
-6,18,23,-7,-14,20,-52,-108,-114,-100,-42,55
-4,11,15,-5,-9,13,-47,-97,-102,-92,-38,58
-3,4,6,-2,-4,5,-42,-85,-91,-84,-33,60
-1,-3,-2,1,1,-3,-37,-74,-81,-77,-29,61
0,-11,-11,5,6,-11,-32,-64,-71,-70,-25,62
2,-18,-20,7,12,-19,-27,-55,-63,-63,-21,62
3,-24,-27,10,16,-26,-23,-47,-55,-56,-19,61
3,-28,-32,12,18,-31,-20,-40,-49,-50,-17,59
3,-31,-34,13,19,-33,-16,-34,-42,-44,-14,56
3,-32,-35,14,19,-34,-13,-28,-36,-38,-12,52
2,-32,-34,14,19,-34,-10,-22,-29,-32,-10,47
2,-31,-33,14,18,-33,-7,-16,-22,-27,-9,42
2,-29,-31,14,17,-30,-4,-11,-16,-21,-8,36
1,-26,-27,12,15,-27,-2,-6,-10,-15,-6,31
1,-22,-23,10,13,-23,0,-2,-5,-9,-4,27
1,-18,-19,9,10,-19,1,2,0,-3,-3,23
0,-15,-15,7,8,-16,2,6,4,1,-3,18
0,-13,-13,6,7,-14,3,9,8,5,-2,14
0,-12,-11,6,6,-12,4,12,11,7,-2,9
-1,-12,-10,6,5,-12,6,14,14,9,-2,5
-2,-12,-9,7,4,-11,7,16,17,11,-2,2
-3,-12,-8,7,3,-11,8,18,19,13,-2,0
-4,-11,-7,7,3,-10,9,19,20,15,-2,-2
-3,-10,-7,6,3,-9,9,20,21,15,-3,-3
-3,-9,-6,5,3,-8,9,21,21,16,-4,-4
-3,-9,-6,5,2,-8,9,21,22,16,-4,-5
-3,-9,-6,5,2,-8,9,21,22,16,-4,-6
-3,-9,-6,6,2,-8,9,22,23,16,-4,-6
-3,-10,-6,6,2,-8,9,22,23,17,-4,-7
-4,-10,-6,7,2,-8,10,22,23,17,-4,-8
-4,-10,-6,7,2,-8,10,22,24,17,-4,-8
-4,-10,-6,7,2,-8,11,22,24,17,-4,-9
-4,-10,-6,7,1,-8,11,22,24,17,-4,-9
-4,-10,-6,7,1,-8,11,22,24,17,-4,-9
-4,-10,-6,7,1,-8,11,22,24,17,-4,-9
-3,-9,-6,6,1,-8,11,23,25,17,-5,-9
-3,-9,-6,6,1,-8,11,23,25,17,-5,-9
-3,-9,-6,6,1,-8,11,23,25,17,-5,-9
-3,-9,-6,6,1,-8,11,24,25,18,-4,-9
-3,-9,-6,6,2,-8,11,24,25,18,-4,-8
-3,-9,-6,6,2,-8,11,24,25,18,-4,-8
-3,-10,-6,6,2,-9,10,24,26,19,-4,-8
-3,-10,-6,6,2,-9,10,24,26,19,-4,-8
-4,-10,-6,6,1,-9,9,24,26,19,-4,-9
-4,-10,-5,6,1,-8,9,25,26,19,-3,-9
-4,-9,-5,6,1,-8,9,25,26,19,-3,-9
-4,-9,-5,7,1,-8,9,25,27,19,-3,-9
-5,-10,-5,7,0,-8,9,25,27,19,-3,-10
-4,-10,-5,7,0,-8,9,25,28,19,-3,-10
-4,-10,-5,6,0,-8,9,25,28,19,-3,-10
-4,-9,-5,6,0,-8,10,25,29,20,-3,-10
-3,-9,-6,6,1,-8,10,26,29,20,-3,-10
-3,-9,-6,6,1,-8,11,26,30,20,-3,-10
-2,-9,-6,6,2,-8,11,27,30,20,-3,-10
-2,-9,-6,6,2,-8,11,27,31,21,-3,-10
-2,-9,-6,6,3,-8,11,28,31,21,-3,-10
-2,-9,-6,5,3,-8,11,28,32,22,-2,-9
-2,-9,-6,5,3,-8,11,29,32,22,-2,-9
-1,-9,-7,5,3,-8,12,29,32,23,-1,-8
-1,-8,-7,5,3,-8,12,29,33,24,-1,-8
-1,-8,-7,5,3,-8,12,29,33,24,-1,-8
-1,-9,-7,6,3,-8,12,30,34,24,-1,-9
-1,-9,-7,5,3,-8,12,30,34,24,-1,-9
-1,-9,-7,5,3,-8,12,31,35,24,0,-9
-1,-9,-7,5,3,-9,12,31,35,25,0,-9
-1,-9,-7,5,3,-9,12,32,36,25,0,-9
-1,-8,-7,5,3,-8,12,33,37,26,1,-9
0,-7,-7,4,3,-8,12,33,38,27,1,-9
0,-7,-7,4,3,-7,12,34,38,28,2,-9
0,-6,-7,3,3,-7,12,34,39,28,2,-9
0,-6,-7,3,3,-7,12,35,39,29,2,-10
0,-7,-6,3,3,-7,12,35,40,29,1,-10
0,-7,-6,3,3,-6,12,36,40,29,1,-11
0,-6,-6,3,3,-6,13,37,41,30,1,-12
0,-6,-6,3,4,-6,14,38,42,30,2,-12
0,-6,-7,3,4,-7,14,39,43,31,2,-11
0,-7,-7,3,4,-7,15,40,44,31,2,-11
0,-8,-8,4,4,-8,15,41,45,33,4,-10
0,-8,-9,4,4,-8,15,42,46,34,5,-9
0,-9,-9,4,4,-9,15,43,46,35,6,-9
0,-9,-9,5,4,-9,15,44,47,36,6,-9
-1,-9,-9,5,4,-9,15,44,48,36,7,-9
-1,-9,-8,5,3,-9,15,45,49,37,7,-10
-1,-9,-8,5,3,-9,15,46,50,37,7,-10
-2,-10,-8,6,2,-9,15,47,51,37,7,-10
-2,-10,-8,6,2,-9,15,48,52,38,7,-10
-2,-10,-8,6,3,-10,15,49,53,39,8,-10
-2,-10,-8,6,3,-10,16,50,55,41,9,-10
-1,-10,-8,6,3,-9,16,51,56,42,10,-10
-1,-9,-8,6,3,-9,16,52,57,43,10,-10
-1,-9,-9,6,4,-10,17,53,58,44,11,-10
-1,-10,-9,6,4,-10,17,54,59,44,11,-11
-1,-10,-9,6,4,-10,17,55,60,45,11,-11
-1,-10,-9,6,4,-10,17,56,62,46,11,-11
-1,-10,-9,5,4,-9,17,58,63,47,11,-11
0,-9,-9,5,4,-9,17,59,64,48,12,-11
0,-9,-9,5,4,-10,17,60,65,50,12,-11
-1,-10,-10,6,4,-10,18,61,66,51,13,-11
-1,-11,-10,6,4,-11,18,61,67,52,14,-11
-1,-12,-11,7,4,-12,18,62,68,53,15,-10
-1,-13,-12,7,4,-13,18,62,69,53,16,-10
-1,-14,-12,8,5,-13,18,63,69,54,17,-10
-1,-14,-12,8,5,-13,18,64,70,55,17,-10
0,-13,-12,7,5,-13,18,65,71,57,18,-10
0,-13,-12,7,5,-13,18,65,72,58,18,-10
-1,-13,-13,8,5,-13,18,66,73,59,19,-10
-1,-13,-13,8,6,-14,18,66,73,59,19,-10
0,-13,-13,7,7,-14,18,67,74,60,20,-10
0,-13,-14,7,7,-14,18,68,75,61,21,-9
0,-14,-14,7,7,-14,18,68,76,62,22,-9
0,-14,-14,7,7,-15,18,69,77,63,23,-9
0,-14,-15,6,7,-15,18,69,77,64,23,-9
1,-14,-15,6,7,-15,18,69,78,65,24,-8
1,-14,-15,6,7,-15,19,70,78,65,24,-8
1,-14,-16,6,7,-15,19,70,78,65,25,-7
1,-15,-16,6,8,-16,18,70,78,65,26,-7
2,-15,-16,6,8,-16,18,70,78,66,27,-6
2,-14,-16,6,9,-15,17,69,78,66,28,-6
2,-13,-16,5,9,-15,16,69,78,67,29,-5
2,-13,-16,5,9,-15,16,68,78,67,30,-5
3,-13,-16,5,9,-15,16,67,77,67,30,-4
3,-13,-17,5,10,-15,16,66,76,67,30,-3
3,-14,-17,5,10,-16,15,65,75,67,31,-2
3,-14,-17,5,10,-16,15,63,74,67,32,-1
3,-14,-17,5,10,-16,14,62,73,66,33,0
3,-14,-17,5,10,-16,13,61,72,65,33,1
4,-14,-17,5,11,-16,12,59,71,64,33,1
5,-13,-17,4,11,-16,11,57,69,64,33,2
5,-12,-17,4,11,-15,11,55,67,63,33,3
5,-12,-17,4,11,-15,10,52,65,62,33,3
5,-12,-16,4,10,-15,10,50,63,61,32,4
6,-11,-16,3,10,-14,9,48,61,59,32,4
6,-10,-15,2,10,-12,9,46,58,57,32,5
6,-9,-14,1,9,-12,8,44,56,55,32,6
5,-8,-13,1,9,-11,7,41,53,54,32,7
5,-8,-13,1,9,-11,6,39,51,52,32,7
5,-8,-13,1,9,-11,5,36,48,50,31,8
4,-8,-13,2,8,-11,4,34,46,48,30,8
4,-8,-12,2,8,-11,4,31,43,46,29,8
4,-7,-11,1,7,-9,3,29,40,43,27,8
4,-5,-9,1,7,-8,2,26,37,41,25,8
4,-4,-8,1,6,-7,1,24,34,38,23,8
3,-4,-7,1,5,-6,0,21,31,35,21,8
3,-4,-7,1,4,-6,0,19,29,33,20,8
2,-5,-7,1,4,-6,0,17,26,31,19,7
2,-5,-6,1,3,-6,0,15,24,29,17,7
2,-5,-6,1,3,-6,0,14,22,27,16,7
1,-5,-6,2,2,-6,-1,12,19,25,14,6
0,-6,-5,3,2,-6,-1,10,17,22,12,6
0,-6,-5,3,2,-6,-1,9,16,20,10,5
-1,-6,-5,4,1,-6,-2,7,14,18,9,5
-2,-6,-4,4,0,-6,-2,6,12,17,7,4
-2,-6,-4,4,0,-6,-3,5,11,15,6,3
-2,-6,-4,4,0,-6,-3,4,9,15,5,2
-2,-7,-4,4,0,-6,-3,3,8,14,3,1
-3,-8,-4,5,0,-6,-3,2,6,12,2,1
-3,-8,-4,6,-1,-6,-3,2,5,10,0,0
-4,-9,-4,7,-1,-6,-2,2,5,8,0,0
-4,-9,-4,7,-1,-6,-2,1,4,7,-1,0
-5,-10,-4,8,-1,-7,-2,1,4,7,-1,0
-5,-10,-4,8,-1,-7,-2,1,4,6,-2,-1
-6,-10,-4,8,-1,-8,-2,0,3,5,-3,-2
-6,-11,-4,9,-1,-8,-1,0,3,5,-5,-2
-6,-11,-4,9,-2,-8,-1,0,2,4,-6,-3
-6,-11,-4,9,-2,-8,-1,-1,2,3,-6,-3
-6,-11,-4,9,-2,-8,-1,-1,2,3,-7,-4
-7,-12,-4,10,-2,-8,-1,-1,2,3,-7,-4
-7,-12,-4,10,-2,-9,-1,-1,1,3,-8,-5
-8,-13,-4,11,-2,-9,-1,-1,1,3,-8,-6
-9,-13,-4,11,-3,-9,-1,-1,1,3,-8,-7
-9,-13,-3,11,-3,-9,0,-1,1,2,-9,-8
-8,-13,-3,11,-2,-8,0,-1,1,2,-9,-8
-8,-13,-4,11,-2,-9,0,-1,1,2,-10,-8
-8,-14,-4,12,-2,-9,0,-1,1,1,-11,-8
-9,-15,-5,12,-2,-10,0,-1,1,1,-11,-8
-9,-16,-5,13,-2,-11,0,-1,1,1,-11,-8
-9,-15,-5,13,-2,-11,0,0,2,1,-11,-8
-8,-15,-5,12,-2,-11,0,0,2,1,-11,-8
-8,-14,-5,12,-2,-10,0,0,2,1,-10,-8
-8,-14,-5,12,-2,-10,0,0,2,2,-10,-8
-9,-14,-5,12,-2,-10,0,0,2,2,-10,-8
-9,-15,-5,13,-2,-10,0,0,2,2,-10,-7
-9,-15,-5,12,-2,-10,0,0,2,3,-10,-7
-8,-15,-5,12,-1,-10,0,0,2,3,-9,-6
-8,-14,-5,11,-1,-10,0,0,3,4,-9,-6
-8,-13,-5,11,-1,-10,0,0,3,3,-9,-6
-8,-13,-5,11,-1,-9,1,1,4,3,-9,-7
-8,-13,-5,11,-1,-9,1,1,4,3,-9,-7
-8,-14,-5,11,-1,-10,2,1,4,3,-9,-7
-8,-14,-5,11,-1,-10,2,2,4,4,-9,-7
-8,-14,-5,11,-1,-10,2,2,5,4,-8,-6
-8,-14,-5,11,-1,-10,2,2,5,4,-8,-6
-9,-15,-5,12,-1,-10,2,2,5,4,-8,-6
-9,-15,-5,12,-1,-10,1,2,5,4,-8,-6
-9,-15,-6,12,-1,-10,1,2,5,4,-8,-6
-9,-15,-6,12,-1,-10,1,2,5,5,-8,-6
-9,-15,-6,11,-1,-10,1,2,5,5,-7,-6
-9,-14,-5,11,-1,-9,1,3,5,6,-7,-6
-8,-14,-5,10,-2,-9,1,3,5,6,-7,-6
-8,-13,-5,10,-2,-8,2,4,6,6,-7,-6
-7,-12,-5,9,-2,-8,2,4,6,6,-7,-6
-7,-13,-5,10,-2,-9,3,4,6,6,-7,-5
-7,-13,-5,10,-1,-9,3,4,6,6,-7,-5
-7,-13,-5,10,-1,-9,4,4,7,6,-7,-5
-6,-13,-5,10,-1,-9,4,5,7,6,-7,-5
-6,-13,-5,10,-1,-9,4,5,7,6,-7,-5
-6,-13,-5,10,-1,-9,3,5,7,6,-6,-5
-6,-12,-5,10,-1,-9,3,5,7,7,-5,-5
-6,-11,-4,9,-1,-8,3,5,8,8,-5,-4
-5,-9,-3,8,-1,-6,3,5,8,8,-4,-3
-5,-8,-2,7,-1,-5,3,5,8,9,-4,-3
-5,-8,-2,7,-1,-5,3,5,8,9,-4,-2
-5,-9,-2,7,-1,-5,4,5,9,10,-3,-2
-5,-8,-2,7,-1,-5,4,6,9,10,-2,-1
-5,-8,-2,6,-2,-4,4,6,10,11,-1,-1
-5,-8,-2,6,-2,-4,3,6,10,11,-1,-1
-5,-7,-2,6,-2,-4,3,6,10,11,-1,-1
-5,-7,-2,6,-2,-4,3,6,10,11,-2,-1
-4,-6,-2,5,-1,-4,3,6,11,11,-2,-1
-4,-5,-1,5,-1,-3,3,6,11,11,-3,0
-3,-4,0,4,-2,-2,2,6,11,11,-3,0
-3,-4,0,4,-2,-1,2,6,11,11,-2,0
-3,-3,0,4,-2,-1,1,6,11,12,-1,1
-3,-3,0,4,-2,-1,0,5,11,13,-1,1
-3,-3,0,4,-2,-1,0,5,11,13,-1,1
-3,-3,0,4,-1,-1,-1,4,11,13,-1,1
-2,-2,0,3,-1,-1,-1,4,11,13,0,2
-1,-2,0,2,-1,-1,-2,4,11,14,0,2
-1,-1,0,2,-1,-1,-2,3,10,13,0,2
-1,-1,0,1,-1,-1,-3,3,10,13,0,2
-1,-1,0,1,-1,-1,-3,2,9,12,0,2
-1,-1,0,1,-1,0,-3,2,9,12,0,2
-1,-1,0,1,0,0,-3,2,9,12,-1,2
-1,-1,0,1,0,0,-3,2,9,11,-1,2
-1,-1,0,1,0,0,-3,2,8,11,-2,3
-1,-1,0,1,0,-1,-3,2,8,11,-2,3
-1,-1,0,1,0,-1,-2,2,9,11,-1,4
0,-1,-1,1,0,-1,-2,2,9,11,-1,4
0,-2,-1,2,0,-2,-2,2,8,11,0,5
0,-3,-2,2,1,-3,-2,1,8,12,0,5
0,-4,-4,2,2,-4,-1,1,8,12,0,5
1,-4,-5,2,3,-5,-1,1,8,13,0,5
1,-4,-6,1,4,-5,-1,2,8,13,0,5
2,-4,-7,1,5,-6,-1,2,8,13,0,5
3,-5,-8,2,5,-7,0,2,8,12,0,5
3,-6,-8,2,6,-8,0,2,7,11,-1,5
3,-7,-9,2,6,-8,0,2,7,10,-1,5
3,-7,-9,2,6,-8,0,1,7,10,-1,5
3,-7,-9,2,6,-8,0,1,7,10,-1,5
2,-7,-8,2,5,-8,1,1,7,10,-1,4
1,-7,-8,3,4,-8,1,2,8,10,-1,4
0,-8,-7,4,3,-8,2,2,8,10,-1,3
-1,-9,-7,5,2,-8,3,2,8,11,-1,3
-2,-10,-7,7,2,-8,4,3,8,11,-1,2
-3,-11,-6,8,1,-8,5,3,8,12,-2,2
-4,-12,-6,9,1,-9,6,3,8,11,-2,1
-5,-13,-6,9,0,-9,7,3,8,11,-3,1
-6,-13,-6,9,0,-10,8,3,8,10,-4,0
-6,-13,-7,9,0,-10,8,3,7,10,-5,0
-6,-13,-7,10,0,-10,8,3,7,10,-5,-1
-7,-14,-7,10,0,-11,8,3,7,10,-5,-1
-7,-14,-7,10,0,-11,8,3,7,9,-5,0
-7,-14,-7,11,0,-11,8,3,7,9,-5,0
-7,-14,-7,11,0,-11,8,3,7,9,-6,0
-7,-15,-8,11,0,-11,8,3,7,9,-6,0
-7,-15,-8,11,0,-11,8,3,6,9,-6,-1
-8,-16,-8,12,0,-11,8,3,6,9,-7,-1
-8,-16,-8,12,0,-11,8,3,6,9,-7,-2
-8,-16,-8,12,0,-11,8,3,6,9,-7,-2
-8,-16,-8,12,0,-11,7,2,6,9,-7,-2
-8,-16,-7,12,0,-11,7,2,5,8,-7,-2
-7,-16,-8,12,0,-12,8,2,5,8,-7,-2
-7,-16,-8,11,0,-12,8,2,5,9,-7,-2
-6,-15,-8,11,0,-11,9,2,5,9,-6,-2
-6,-14,-8,10,0,-11,9,2,5,10,-6,-2
-6,-13,-8,10,0,-10,10,2,5,10,-6,-2
-6,-13,-8,10,0,-10,10,2,5,10,-6,-2
-6,-13,-8,10,0,-10,11,2,5,10,-6,-2
-5,-13,-8,10,0,-10,11,3,6,10,-5,-2
-5,-13,-8,10,0,-10,11,3,6,10,-5,-2
-5,-14,-8,10,0,-11,11,3,6,10,-5,-1
-5,-14,-8,10,1,-12,11,3,6,11,-5,-1
-6,-15,-9,11,1,-13,11,3,6,11,-4,0
-6,-17,-10,12,1,-14,10,4,7,12,-4,0
-6,-17,-11,12,2,-14,10,8,10,13,-3,0
-6,-17,-11,12,2,-14,11,13,15,16,-1,0
-5,-16,-11,11,3,-14,11,18,20,19,0,1
-4,-15,-11,9,3,-13,11,21,24,21,1,2
-3,-14,-11,8,4,-13,11,22,26,23,3,2
-2,-13,-11,8,4,-12,11,21,26,25,4,3
-1,-12,-10,7,4,-11,11,17,23,27,6,5
-2,-10,-8,6,2,-9,10,7,15,27,8,6
-5,-8,-3,6,-1,-5,10,-8,0,22,8,8
-8,-5,3,6,-6,0,9,-27,-18,15,8,9
-11,-2,9,6,-10,3,9,-44,-37,6,7,10
-13,0,14,6,-14,7,8,-60,-56,-3,6,11
-16,4,20,6,-18,12,6,-79,-76,-14,4,13
-18,8,26,5,-23,17,1,-100,-97,-26,2,15
-19,12,32,4,-26,22,-6,-122,-119,-40,0,18
-20,15,36,2,-28,25,-15,-143,-141,-53,0,22
-19,18,37,1,-29,28,-25,-162,-160,-65,0,28
-18,20,39,0,-29,29,-35,-180,-178,-77,1,33
-17,22,40,-2,-29,31,-44,-193,-192,-89,1,39
-16,25,41,-4,-29,33,-52,-203,-203,-100,2,44
-14,28,42,-6,-29,35,-58,-209,-211,-111,1,48
-13,30,43,-8,-29,37,-63,-213,-217,-120,0,52
-13,31,44,-9,-29,37,-67,-217,-222,-129,-2,55
-12,32,44,-9,-29,38,-71,-221,-226,-137,-5,58
-13,31,44,-8,-29,38,-74,-223,-229,-144,-10,59
-15,29,44,-6,-30,37,-75,-225,-231,-150,-17,59
-17,29,46,-5,-32,38,-77,-226,-233,-157,-24,58
-19,29,48,-5,-34,39,-79,-228,-235,-163,-32,56
-21,31,52,-4,-36,41,-81,-230,-237,-171,-41,54
-22,33,56,-4,-39,44,-83,-231,-239,-179,-51,52
-24,35,60,-4,-42,47,-84,-231,-240,-186,-60,49
-25,37,64,-5,-45,50,-84,-229,-240,-191,-70,47
-26,39,66,-6,-46,52,-84,-225,-238,-194,-79,45
-27,40,68,-6,-47,54,-83,-219,-234,-194,-86,42
-27,41,69,-6,-48,55,-82,-211,-226,-191,-91,41
-28,40,68,-6,-48,54,-80,-201,-216,-186,-93,40
-28,39,66,-6,-47,52,-76,-188,-203,-178,-92,40
-27,36,63,-5,-45,50,-71,-174,-189,-167,-88,41
-25,32,58,-4,-42,45,-65,-160,-174,-156,-83,43
-23,27,51,-2,-37,39,-60,-147,-160,-144,-77,45
-20,22,42,-1,-31,32,-55,-134,-147,-132,-71,48
-17,16,33,0,-25,25,-50,-121,-134,-121,-65,52
-14,10,24,2,-19,18,-45,-109,-122,-111,-58,55
-12,3,16,4,-14,10,-40,-97,-110,-101,-52,58
-10,-3,7,6,-8,2,-35,-86,-99,-91,-46,60
-9,-10,-2,9,-3,-6,-30,-75,-87,-82,-39,62
-7,-17,-11,12,1,-14,-25,-65,-77,-74,-34,63
-6,-24,-20,15,6,-22,-20,-55,-68,-66,-29,64
-4,-31,-28,17,12,-30,-16,-47,-59,-58,-25,65
-2,-36,-34,19,16,-35,-12,-40,-51,-51,-21,64
-1,-39,-39,20,19,-39,-9,-33,-44,-44,-17,63
0,-41,-41,21,21,-41,-6,-27,-37,-37,-13,61
0,-41,-42,21,21,-41,-3,-21,-30,-30,-10,57
0,-41,-41,21,20,-41,0,-15,-24,-23,-7,52
-1,-39,-39,21,19,-39,3,-10,-17,-18,-6,46
-1,-37,-36,20,17,-36,6,-5,-11,-12,-5,40
0,-32,-32,17,15,-32,8,-1,-5,-6,-3,35
0,-27,-27,14,14,-27,10,3,1,1,-1,30
0,-22,-23,11,12,-22,11,7,6,7,0,26
0,-18,-19,9,10,-18,12,11,11,12,1,21
0,-16,-15,8,8,-15,13,14,15,16,1,17
-1,-14,-13,8,6,-14,14,16,18,18,1,12
-2,-14,-11,8,4,-13,16,18,20,19,1,7
-3,-14,-10,9,3,-12,17,20,23,21,0,3
-3,-14,-10,9,3,-12,18,22,25,22,0,0
-3,-14,-10,9,3,-12,19,23,26,24,0,-1
-3,-13,-10,9,3,-12,20,24,27,25,0,-1
-3,-13,-10,9,3,-12,20,24,27,26,1,-1
-3,-13,-10,8,3,-12,20,25,27,26,1,-1
-3,-13,-10,8,3,-12,20,25,27,26,1,-2
-3,-13,-9,8,3,-11,20,25,28,26,1,-2
-3,-13,-9,8,3,-11,20,26,28,26,1,-3
-3,-12,-9,8,3,-11,20,26,29,26,1,-4
-3,-12,-9,8,3,-10,21,27,29,27,1,-4
-3,-12,-9,7,3,-10,21,27,29,27,1,-5
-3,-12,-9,7,3,-10,21,27,29,27,1,-5
-3,-12,-8,7,3,-10,21,27,29,27,2,-5
-3,-11,-8,7,3,-10,21,27,29,27,2,-5
-3,-11,-8,7,3,-10,21,28,29,28,2,-5
-3,-11,-8,7,3,-9,21,28,30,28,2,-5
-2,-11,-8,7,3,-9,21,28,30,28,2,-6
-2,-11,-8,7,3,-9,21,29,30,28,2,-6
-2,-11,-8,7,3,-9,21,29,31,28,2,-6
-2,-10,-8,7,3,-9,21,29,31,28,3,-6
-2,-10,-8,6,3,-9,21,29,31,28,3,-6
-1,-9,-8,6,3,-9,20,29,31,28,3,-6
-1,-9,-8,5,3,-8,20,30,31,28,3,-6
0,-8,-8,5,3,-8,21,30,32,28,3,-6
0,-8,-8,5,3,-8,21,31,32,28,3,-6
0,-8,-8,5,3,-8,22,31,32,29,3,-6
0,-8,-8,5,4,-8,22,32,32,29,3,-6
0,-8,-8,5,4,-8,22,32,33,29,3,-6
0,-8,-8,5,4,-8,22,32,33,29,4,-6
0,-8,-8,5,4,-8,22,32,33,29,4,-6
0,-8,-8,4,4,-7,22,32,34,30,5,-6
0,-8,-8,4,4,-7,23,32,34,30,5,-6
0,-8,-8,4,3,-7,23,32,34,30,5,-6
1,-7,-8,4,3,-7,23,32,34,30,5,-7
1,-7,-8,4,3,-7,23,33,35,30,5,-7
1,-6,-7,3,3,-6,23,33,35,31,5,-7
1,-6,-7,3,3,-6,23,34,36,31,5,-7
1,-6,-7,2,4,-6,23,34,36,31,5,-7
1,-6,-7,3,4,-7,23,34,37,31,5,-7
1,-7,-7,3,4,-7,23,35,37,31,5,-7
1,-7,-7,3,4,-7,23,35,38,31,5,-8
1,-7,-7,3,4,-7,23,36,38,31,6,-8
1,-7,-7,3,4,-7,23,36,39,32,6,-8
1,-7,-8,3,4,-7,23,37,39,32,7,-8
1,-7,-8,3,4,-7,23,37,40,32,7,-9
1,-7,-8,3,4,-6,23,38,40,33,8,-9
1,-7,-8,2,4,-6,23,38,41,34,8,-9
1,-7,-8,3,4,-7,23,39,41,34,8,-9
0,-8,-8,3,4,-7,23,39,42,35,8,-9
0,-8,-8,4,4,-8,23,40,42,35,9,-9
0,-8,-8,4,4,-8,24,40,43,35,9,-9
1,-8,-8,3,4,-7,24,41,44,36,10,-9
1,-7,-8,3,4,-7,24,42,45,36,10,-9
1,-6,-8,2,4,-7,24,42,45,37,10,-9
1,-6,-8,2,4,-7,24,43,46,37,10,-9
1,-7,-8,2,4,-7,24,44,47,38,11,-10
1,-7,-8,2,4,-7,24,45,47,38,11,-10
1,-7,-8,3,4,-7,25,46,48,39,12,-10
1,-7,-8,3,4,-7,25,46,49,40,12,-10
1,-7,-8,3,4,-8,26,47,50,40,13,-11
1,-7,-9,3,5,-8,26,48,51,41,13,-11
1,-7,-9,3,5,-8,26,49,53,42,14,-11
1,-8,-9,3,5,-8,26,50,54,43,14,-11
0,-8,-9,3,4,-8,26,51,54,43,15,-12
0,-8,-9,3,4,-8,26,52,55,44,15,-12
1,-8,-9,3,5,-8,26,53,56,45,16,-12
1,-8,-9,3,5,-8,27,54,57,46,16,-12
1,-8,-9,3,5,-8,27,55,58,47,17,-12
1,-8,-9,3,5,-8,28,56,60,48,17,-13
1,-8,-10,3,5,-8,28,57,61,49,18,-13
1,-8,-10,3,5,-8,28,58,62,50,18,-13
1,-8,-10,3,5,-8,29,59,64,51,19,-13
2,-8,-10,3,6,-9,29,61,65,52,20,-13
2,-8,-10,2,6,-9,29,62,67,53,20,-13
2,-8,-10,2,6,-9,29,63,68,54,21,-13
2,-8,-10,2,7,-9,30,64,69,54,21,-13
3,-8,-11,2,7,-9,30,65,70,55,22,-13
3,-8,-11,2,8,-9,30,66,71,56,23,-13
4,-8,-11,2,8,-9,31,67,72,57,24,-12
4,-8,-12,2,8,-9,31,68,73,59,25,-12
4,-8,-12,1,8,-9,31,69,74,60,26,-12
5,-8,-12,1,8,-9,31,70,75,61,27,-12
5,-8,-13,1,8,-10,31,71,76,62,27,-12
5,-8,-13,1,9,-10,32,72,77,63,28,-12
5,-8,-13,1,9,-11,32,73,78,63,28,-12
5,-8,-14,1,9,-11,32,73,79,64,29,-12
5,-9,-14,1,9,-11,32,74,79,65,30,-12
5,-9,-14,1,9,-11,32,74,80,65,31,-12
5,-9,-15,1,10,-11,32,75,81,66,32,-11
6,-9,-15,1,10,-11,32,76,81,67,33,-11
6,-9,-15,1,11,-12,32,76,82,68,34,-10
6,-9,-15,1,11,-12,32,77,82,69,34,-10
6,-9,-16,1,11,-12,31,77,82,69,35,-9
6,-9,-16,1,11,-12,31,76,82,69,35,-9
6,-9,-16,1,11,-12,30,76,82,70,36,-9
6,-9,-16,1,11,-12,30,76,82,70,37,-8
7,-9,-16,1,11,-12,29,75,82,70,38,-8
7,-9,-16,0,12,-12,29,75,82,70,38,-7
8,-9,-16,0,12,-12,28,74,81,70,39,-7
9,-8,-17,0,12,-12,28,73,81,70,40,-6
9,-8,-17,-1,12,-12,28,72,80,70,40,-5
9,-7,-17,-2,13,-12,28,71,79,69,41,-5
9,-7,-17,-1,13,-12,28,70,77,69,41,-4
9,-7,-17,-1,13,-12,28,69,76,68,42,-4
10,-7,-17,-1,13,-12,27,67,74,67,42,-3
10,-7,-17,-1,13,-12,27,66,73,66,42,-3
10,-7,-17,-2,13,-12,26,64,71,65,42,-2
10,-7,-16,-2,13,-11,26,62,69,64,42,-2
10,-7,-16,-2,13,-11,25,60,66,62,42,-1
10,-6,-16,-3,13,-10,24,58,64,61,42,-1
10,-6,-15,-3,13,-10,23,55,61,59,42,0
10,-5,-15,-3,13,-9,22,53,59,57,42,0
10,-4,-14,-3,12,-9,21,51,57,55,41,0
10,-3,-14,-3,12,-8,20,49,54,53,40,1
10,-3,-13,-3,11,-8,19,46,52,50,39,1
9,-2,-12,-4,11,-7,18,44,49,48,38,2
9,-2,-12,-4,10,-7,17,41,46,45,37,2
9,-2,-11,-4,10,-6,16,39,43,43,36,2
9,-1,-10,-4,9,-6,15,37,41,41,35,2
9,-1,-9,-4,9,-5,15,34,38,38,33,2
9,0,-9,-4,9,-4,14,32,36,36,32,2
8,0,-8,-4,8,-4,14,29,33,33,31,2
7,0,-7,-4,7,-3,13,27,30,31,29,2
7,1,-6,-4,6,-3,13,25,27,28,27,1
6,1,-6,-4,6,-2,12,23,25,26,25,1
6,1,-6,-4,6,-2,12,22,23,24,23,0
6,1,-5,-4,5,-2,11,20,21,22,22,0
5,1,-5,-3,5,-1,11,19,19,20,20,-1
5,1,-4,-3,4,-1,11,17,17,17,19,-1
5,0,-4,-2,4,-1,11,16,15,15,17,-2
4,0,-4,-2,4,-1,10,15,14,13,16,-2
4,0,-4,-2,4,-1,10,14,12,12,15,-3
3,0,-4,-2,3,-1,10,13,11,10,13,-4
2,-1,-4,-1,3,-1,10,12,10,9,12,-5
2,-1,-4,-1,2,-1,10,11,9,8,11,-5
2,-1,-4,0,2,-1,10,11,8,7,10,-6
2,-1,-4,0,2,-1,10,10,7,6,9,-7
2,-1,-3,0,2,-1,9,10,7,4,8,-7
1,-1,-3,0,2,-1,9,9,6,3,7,-8
1,-1,-3,0,2,-2,9,9,6,2,6,-9
1,-1,-3,0,2,-2,9,9,5,1,5,-9
1,-2,-3,0,1,-2,9,9,5,1,4,-10
0,-2,-3,1,1,-2,9,9,4,0,4,-11
0,-3,-3,1,1,-2,9,8,4,0,3,-12
0,-3,-3,1,1,-2,9,8,3,-1,2,-12
0,-3,-3,1,1,-3,10,7,3,-1,2,-13
0,-3,-3,1,1,-3,10,7,3,-2,1,-13
0,-3,-3,1,1,-3,10,7,3,-2,1,-14
-1,-3,-3,2,1,-3,10,7,2,-3,0,-14
-1,-4,-3,2,1,-3,10,7,2,-3,0,-15
-1,-4,-3,2,1,-3,10,7,2,-3,0,-15
-1,-4,-3,2,1,-3,10,7,2,-3,0,-16
-1,-4,-3,2,1,-3,10,7,2,-3,0,-16
-1,-4,-3,2,1,-3,10,7,2,-3,0,-16
-1,-5,-3,3,1,-3,10,7,2,-3,0,-16
-1,-5,-3,3,1,-3,10,7,2,-3,0,-16
-1,-5,-3,3,1,-3,10,7,2,-3,0,-16
-1,-5,-3,3,1,-4,10,7,2,-3,0,-16
-2,-6,-3,3,1,-4,10,8,2,-4,-1,-16
-2,-6,-3,3,1,-4,10,8,2,-4,-1,-16
-2,-6,-3,4,1,-4,10,8,2,-4,-1,-16
-2,-6,-3,4,0,-4,10,8,2,-4,-1,-16
-3,-6,-3,4,0,-4,10,8,2,-3,-1,-17
-3,-6,-4,4,0,-5,10,8,2,-3,-1,-17
-3,-7,-4,4,0,-5,10,8,2,-3,-1,-17
-3,-7,-4,4,0,-5,10,8,2,-3,0,-17
-3,-7,-4,4,0,-5,10,8,2,-3,0,-17
-3,-7,-4,4,0,-5,10,8,2,-3,0,-17
-3,-7,-4,4,0,-5,10,8,3,-3,0,-17
-3,-6,-4,4,0,-5,10,8,3,-3,0,-17
-3,-6,-4,4,0,-5,10,8,3,-3,0,-17
-4,-7,-4,5,0,-5,10,8,3,-3,0,-17
-4,-7,-4,5,0,-5,10,8,3,-3,0,-17
-4,-7,-4,5,0,-5,10,8,3,-2,0,-17
-4,-7,-4,6,0,-5,10,8,3,-2,0,-18
-4,-7,-4,6,0,-5,10,8,3,-2,0,-18
-4,-7,-4,6,0,-5,10,8,3,-2,0,-18
-5,-8,-4,6,-1,-5,10,8,3,-2,0,-18
-5,-8,-3,7,-1,-6,9,8,3,-2,0,-18
-5,-8,-3,7,-1,-5,9,9,4,-2,1,-18
-5,-8,-3,6,-1,-5,9,9,4,-2,1,-18
-5,-8,-3,6,-1,-5,9,9,4,-2,1,-18
-5,-8,-3,6,-1,-5,9,9,4,-2,1,-18
-5,-9,-3,7,-1,-6,9,9,4,-2,1,-18
-5,-9,-3,7,-1,-6,9,9,4,-1,2,-17
-5,-8,-3,7,-1,-6,9,9,5,-1,2,-17
-5,-7,-3,6,-1,-5,10,9,5,0,3,-16
-5,-6,-3,6,-1,-4,10,9,6,0,3,-16
-5,-6,-2,5,-1,-4,11,9,6,0,3,-16
-5,-5,-2,5,-1,-3,11,10,6,1,4,-16
-4,-5,-1,4,-1,-3,11,10,7,1,4,-16
-4,-4,-1,4,-1,-2,11,11,7,1,4,-15
-4,-4,0,3,-1,-2,11,11,7,2,4,-15
-4,-3,0,3,-1,-2,11,11,7,2,4,-15
-4,-3,0,3,-1,-2,10,11,7,2,4,-14
-4,-3,0,3,-1,-1,10,11,7,2,4,-14
-4,-3,0,3,-2,-1,9,10,7,2,4,-14
-4,-2,1,3,-2,0,9,10,7,3,4,-14
-4,-2,1,3,-2,0,8,10,7,3,5,-14
-3,-1,2,2,-2,1,8,10,7,3,5,-13
-3,0,2,2,-2,1,7,10,7,3,5,-13
-3,0,3,2,-3,1,7,10,7,3,5,-12
-3,0,3,1,-3,1,6,9,7,3,5,-12
-3,0,3,1,-2,1,5,8,7,3,5,-12
-3,0,2,1,-2,1,4,8,7,3,5,-12
-3,0,2,1,-2,1,3,7,7,3,5,-12
-3,0,2,1,-2,1,3,7,7,3,5,-12
-2,0,2,1,-2,1,2,7,6,3,5,-12
-2,0,2,1,-2,1,2,6,6,2,5,-12
-2,0,2,2,-2,0,1,6,5,2,4,-12
-2,0,2,1,-2,0,1,5,5,1,4,-12
-2,0,2,1,-1,0,1,5,4,1,4,-12
-1,0,2,0,-1,1,1,4,4,0,4,-12
-1,0,2,0,-1,1,1,4,4,0,4,-12
-1,1,2,0,-1,1,1,4,4,0,4,-12
0,1,2,0,0,1,1,4,3,0,4,-12
0,1,2,0,0,1,1,4,2,0,4,-11
0,1,1,0,0,1,1,4,2,0,4,-11
0,1,1,0,0,1,2,4,2,0,4,-11
1,1,0,-1,1,1,2,4,2,0,4,-11
2,1,-1,-1,2,0,2,5,3,0,4,-10
2,1,-2,-2,2,0,2,5,3,0,4,-10
3,1,-3,-2,3,-1,2,5,3,0,4,-10
4,0,-4,-2,4,-1,2,5,3,0,4,-10
5,0,-5,-2,5,-2,3,5,3,0,4,-10
5,0,-5,-2,5,-2,3,5,3,0,4,-10
5,0,-5,-2,5,-2,3,5,3,0,4,-10
5,0,-5,-2,5,-2,4,5,3,0,4,-10
5,0,-5,-3,5,-1,5,6,3,0,4,-10
5,0,-4,-2,5,-1,6,6,3,0,4,-10
3,0,-4,-2,4,-1,7,6,3,0,3,-10
2,0,-3,-1,3,-1,8,7,3,0,3,-10
1,-1,-3,0,2,-1,9,7,3,0,3,-11
0,-1,-2,0,1,-1,9,8,3,0,2,-12
0,-2,-2,1,1,-1,10,8,4,0,2,-12
0,-2,-2,1,1,-1,11,9,4,-1,2,-13
0,-2,-2,1,1,-1,12,9,4,-1,1,-13
0,-3,-2,2,1,-2,12,9,4,-1,1,-13
-1,-4,-2,2,1,-2,12,9,4,-2,0,-14
-1,-4,-2,2,1,-2,12,9,4,-2,0,-14
0,-4,-3,1,2,-2,12,9,4,-2,0,-14
0,-4,-3,1,2,-2,12,9,4,-2,0,-14
0,-4,-3,1,2,-2,12,9,4,-2,0,-14
0,-4,-3,2,2,-2,12,9,4,-2,0,-15
-1,-4,-3,2,2,-2,12,9,4,-2,0,-15
-1,-4,-3,2,2,-2,12,9,4,-2,0,-15
0,-4,-3,2,2,-2,12,9,4,-2,0,-15
0,-4,-3,2,2,-3,12,9,4,-2,0,-15
-1,-5,-3,2,2,-3,11,9,4,-2,0,-15
-1,-5,-3,3,2,-4,11,9,4,-2,0,-15
-1,-5,-3,2,2,-4,11,9,4,-2,0,-15
-1,-5,-4,2,2,-4,12,9,4,-2,0,-15
-1,-5,-4,2,2,-4,12,9,4,-2,0,-15
-1,-5,-4,2,2,-4,12,9,4,-2,0,-15
-1,-5,-4,2,2,-4,12,9,4,-2,0,-15
-1,-5,-4,2,2,-4,12,9,4,-2,0,-15
-1,-5,-4,2,2,-4,12,9,4,-2,0,-15
-1,-5,-4,2,2,-4,12,8,4,-2,0,-15
-1,-5,-4,2,2,-4,12,8,4,-2,0,-15
-1,-5,-4,2,2,-4,11,8,4,-2,0,-15
-1,-5,-4,2,2,-4,11,8,4,-1,0,-15
-1,-5,-4,2,2,-4,11,9,5,-1,0,-15
-1,-5,-4,2,2,-4,11,10,6,-1,0,-15
0,-5,-4,1,2,-4,11,14,8,0,1,-15
1,-4,-5,0,3,-4,12,19,13,3,2,-14
2,-4,-6,0,4,-4,13,25,18,5,4,-13
3,-3,-6,-1,5,-4,13,28,22,8,6,-11
5,-3,-7,-1,6,-4,12,29,24,10,8,-10
6,-2,-7,-2,6,-4,12,28,24,12,10,-9
6,-1,-6,-2,6,-3,11,22,20,14,11,-8
5,1,-4,-2,4,-1,10,10,11,13,12,-7
2,3,1,-2,1,2,9,-7,-4,8,11,-6
-1,5,6,-2,-3,7,9,-27,-24,0,10,-6
-4,7,12,-2,-8,10,8,-45,-43,-8,8,-5
-7,9,17,-2,-12,14,7,-63,-62,-18,6,-4
-9,12,22,-2,-15,18,4,-83,-82,-28,4,-3
-10,16,28,-3,-19,22,-1,-104,-103,-40,2,-2
-11,20,32,-4,-21,26,-9,-126,-125,-53,1,1
-11,23,35,-6,-22,29,-19,-148,-145,-64,1,5
-10,26,36,-8,-22,31,-29,-167,-163,-74,2,10
-8,28,37,-10,-22,33,-40,-184,-179,-83,3,16
-6,31,38,-12,-22,35,-49,-197,-192,-93,3,22
-4,34,39,-15,-22,37,-56,-206,-202,-103,4,27
-3,36,40,-17,-21,39,-62,-212,-210,-112,4,31
-1,39,41,-19,-21,40,-68,-217,-217,-121,3,35
0,40,41,-19,-20,41,-73,-221,-223,-130,2,39
0,41,41,-19,-20,41,-77,-225,-228,-138,0,41
0,40,41,-19,-20,41,-79,-228,-231,-145,-3,43
-1,40,41,-19,-21,41,-81,-229,-234,-152,-8,43
-2,39,43,-19,-22,41,-83,-231,-236,-158,-14,43
-4,40,45,-18,-24,43,-85,-233,-238,-165,-21,43
-5,41,48,-18,-27,45,-87,-235,-241,-173,-29,41
-7,43,51,-18,-29,47,-88,-235,-243,-180,-37,39
-8,46,55,-18,-32,51,-89,-234,-243,-185,-44,37
-9,48,59,-18,-34,54,-90,-231,-242,-190,-52,35
-10,50,61,-19,-35,56,-90,-227,-240,-192,-59,33
-11,52,64,-20,-37,58,-89,-220,-235,-192,-65,31
-11,53,65,-20,-38,60,-88,-212,-228,-190,-69,31
-12,53,66,-21,-38,60,-86,-202,-218,-186,-71,31
-12,52,65,-21,-38,59,-81,-189,-205,-179,-71,32
-11,51,63,-20,-37,58,-76,-176,-192,-170,-68,33
-11,48,60,-19,-36,55,-70,-162,-178,-160,-64,34
-10,44,55,-17,-33,50,-65,-149,-164,-149,-60,36
-9,40,49,-15,-29,45,-60,-136,-151,-139,-55,38
-7,35,42,-14,-24,39,-55,-124,-139,-129,-50,41
-5,29,34,-12,-19,32,-50,-112,-127,-120,-45,43
-4,22,26,-10,-15,25,-45,-101,-115,-111,-40,46
-3,14,18,-7,-10,16,-40,-89,-104,-102,-35,49
-1,6,8,-3,-4,7,-35,-78,-92,-93,-29,51
0,-2,-1,0,1,-2,-29,-67,-81,-85,-24,52
1,-10,-12,4,7,-11,-24,-56,-71,-77,-19,53
4,-17,-21,6,13,-19,-19,-47,-62,-69,-15,53
6,-22,-28,8,17,-25,-15,-39,-54,-62,-11,53
7,-26,-33,9,20,-30,-12,-32,-47,-56,-9,52
7,-29,-36,10,22,-32,-9,-25,-40,-49,-6,49
7,-31,-37,11,22,-34,-6,-19,-33,-43,-4,46
6,-31,-36,12,21,-34,-3,-13,-27,-37,-2,41
6,-30,-35,12,20,-33,0,-7,-20,-31,-1,35
4,-28,-32,12,18,-30,2,-2,-14,-26,0,29
3,-25,-28,11,16,-26,5,2,-8,-20,1,24
3,-20,-23,9,14,-21,7,7,-2,-13,2,19
2,-16,-18,7,11,-16,8,11,3,-7,3,14
2,-12,-14,5,9,-12,9,14,7,-3,4,9
1,-10,-11,3,7,-10,10,17,11,0,4,4
1,-8,-9,3,5,-8,12,19,14,3,3,0
0,-8,-8,3,5,-8,13,22,17,5,3,-4
0,-7,-7,3,4,-7,15,24,19,6,2,-8
0,-7,-7,3,4,-7,16,26,21,8,2,-10
0,-6,-6,3,4,-6,17,27,22,9,2,-11
0,-6,-6,2,3,-5,17,28,23,10,2,-12
0,-5,-5,2,3,-5,17,28,23,11,2,-13
0,-5,-5,2,3,-5,17,29,24,12,2,-13
0,-5,-5,1,3,-5,17,29,25,12,2,-13
1,-5,-5,1,3,-5,17,30,25,12,2,-14
0,-5,-5,2,3,-5,17,30,26,12,2,-15
0,-5,-5,2,2,-5,17,31,26,12,2,-16
0,-5,-5,2,2,-5,18,31,26,13,2,-16
0,-4,-5,2,2,-4,18,31,26,13,2,-16
0,-4,-5,2,2,-4,18,31,26,13,2,-16
0,-4,-5,2,2,-4,18,31,26,13,2,-16
0,-5,-5,2,2,-4,18,31,26,13,2,-16
0,-5,-5,2,2,-4,18,31,26,13,2,-16
0,-4,-4,1,2,-4,18,31,27,13,2,-16
0,-4,-4,1,2,-4,18,31,27,13,2,-16
0,-4,-4,1,2,-4,18,32,27,13,2,-16
0,-4,-4,1,2,-4,18,32,27,13,2,-16
0,-4,-4,1,2,-4,18,32,27,13,2,-16
1,-4,-4,0,2,-4,18,32,28,14,3,-16
1,-4,-4,0,2,-4,18,32,28,14,3,-16
1,-4,-4,0,2,-4,18,33,28,14,4,-16
1,-4,-4,0,2,-4,18,33,29,14,4,-16
1,-3,-4,0,2,-3,18,33,29,14,4,-16
1,-3,-4,0,3,-3,18,33,29,14,4,-16
1,-3,-4,0,3,-4,18,33,29,14,4,-16
1,-3,-4,0,3,-4,18,33,29,15,4,-16
1,-2,-4,0,3,-4,18,34,30,15,4,-16
2,-2,-4,0,3,-4,18,34,30,16,4,-16
2,-2,-4,0,4,-3,18,35,31,16,4,-16
2,-2,-5,-1,4,-3,18,35,31,16,4,-15
2,-2,-5,-1,4,-3,18,36,32,17,4,-15
2,-2,-5,-1,4,-3,18,36,32,17,4,-15
2,-2,-5,-1,4,-3,18,37,32,17,4,-15
2,-2,-5,-1,4,-3,18,37,33,17,4,-15
2,-2,-5,-1,4,-3,18,37,33,18,4,-15
2,-2,-5,-1,4,-3,18,38,33,18,4,-15
2,-2,-5,-1,4,-3,18,38,34,19,4,-15
2,-2,-5,-1,4,-3,18,38,34,19,4,-15
2,-2,-5,-1,4,-3,18,39,35,19,5,-15
2,-2,-5,-1,4,-3,18,39,35,19,5,-15
2,-2,-5,-1,4,-3,19,39,36,20,5,-15
3,-1,-5,-1,4,-3,19,40,36,21,6,-15
3,-1,-5,-2,4,-3,20,40,37,22,6,-15
3,-1,-5,-2,4,-3,20,41,37,22,6,-15
3,-1,-5,-2,4,-3,20,41,38,23,6,-15
3,-1,-5,-2,4,-3,20,42,39,23,6,-15
4,0,-5,-2,4,-3,20,43,40,24,6,-15
4,0,-5,-2,4,-3,20,44,40,24,6,-15
4,-1,-5,-2,4,-3,20,44,41,24,6,-15
4,-1,-5,-2,5,-3,20,45,42,24,6,-15
3,-1,-5,-2,5,-3,20,46,42,25,6,-15
3,-1,-5,-1,5,-3,21,46,43,26,7,-15
3,-1,-5,-1,5,-3,21,47,44,27,7,-15
4,-1,-5,-1,5,-3,21,48,46,27,8,-15
4,-1,-5,-1,5,-3,21,49,47,28,8,-15
4,-1,-5,-1,5,-3,21,50,48,29,8,-15
4,-1,-5,-1,5,-3,22,51,49,29,9,-15
4,-1,-5,-1,5,-3,22,52,50,30,9,-15
3,-1,-5,-1,5,-3,22,53,50,31,10,-15
3,-1,-5,-1,5,-3,22,54,51,32,10,-15
4,-1,-6,-1,5,-4,23,55,52,33,11,-15
4,-1,-6,-1,5,-4,23,56,54,34,11,-15
4,-1,-6,-1,5,-4,24,58,55,35,11,-15
4,-1,-6,-1,5,-4,24,59,56,35,11,-16
4,-1,-6,-1,5,-4,24,60,57,36,12,-16
4,-1,-6,-1,6,-4,24,61,58,37,12,-16
4,-1,-6,-1,6,-4,24,62,59,38,13,-16
5,-1,-6,-1,6,-4,25,63,60,39,14,-16
5,-1,-7,-1,6,-4,25,64,62,40,14,-15
5,-1,-7,-1,6,-5,25,65,63,41,15,-15
5,-2,-7,-1,6,-5,25,66,64,42,15,-15
5,-2,-8,-1,6,-5,25,68,65,43,16,-15
5,-2,-8,-1,6,-6,25,69,66,44,16,-15
5,-2,-8,-1,7,-6,25,70,67,44,16,-15
5,-2,-9,-1,7,-6,25,71,68,45,17,-15
5,-2,-9,-1,7,-6,25,72,69,46,18,-15
5,-2,-9,-1,7,-6,25,73,70,47,18,-15
5,-2,-10,-1,7,-6,25,73,72,48,19,-15
5,-3,-10,-1,7,-6,25,74,73,49,19,-15
5,-3,-10,-1,7,-6,25,75,74,50,20,-15
5,-3,-10,-1,8,-6,25,76,74,51,20,-15
6,-3,-10,-1,8,-6,25,77,75,52,21,-15
6,-3,-10,-1,9,-7,25,78,76,53,22,-15
6,-3,-11,-1,9,-7,25,78,77,54,22,-14
7,-3,-11,-1,10,-7,26,79,78,55,23,-14
7,-3,-12,-1,10,-7,26,79,78,56,24,-13
8,-3,-12,-2,10,-7,26,80,79,57,25,-13
8,-3,-13,-2,11,-8,26,80,80,58,26,-12
9,-3,-13,-2,11,-8,27,81,80,58,26,-12
9,-2,-13,-2,11,-8,27,81,81,59,27,-11
10,-2,-13,-3,12,-8,27,81,81,59,28,-11
10,-2,-13,-3,12,-8,26,81,81,60,29,-10
11,-2,-14,-3,12,-8,26,81,81,60,29,-10
11,-2,-14,-4,13,-8,25,81,81,61,30,-9
12,-1,-14,-5,13,-8,24,80,81,61,31,-9
13,0,-15,-6,14,-8,24,80,81,62,31,-8
13,0,-15,-6,14,-8,23,79,80,62,32,-8
13,0,-15,-6,14,-8,23,77,79,62,32,-7
13,0,-15,-6,14,-7,22,76,78,61,33,-6
14,0,-15,-6,14,-7,22,75,77,61,33,-5
14,0,-15,-6,14,-7,21,73,76,61,34,-4
14,0,-15,-6,14,-7,20,72,75,60,35,-3
14,0,-15,-6,14,-7,19,70,73,60,35,-3
14,0,-15,-6,14,-7,18,69,72,59,36,-2
14,0,-15,-7,14,-7,17,67,70,58,36,-1
15,0,-15,-7,14,-7,16,65,68,57,36,0
15,1,-14,-7,14,-7,15,63,66,55,36,0
15,1,-14,-8,14,-6,14,61,64,54,36,1
15,2,-14,-8,14,-6,13,58,62,53,36,2
16,2,-13,-8,14,-5,12,56,60,51,36,3
16,3,-13,-9,14,-5,12,53,57,49,35,3
16,4,-12,-9,14,-4,11,51,55,47,35,4
15,4,-12,-9,14,-4,10,48,52,45,34,4
15,5,-11,-10,13,-3,9,46,49,43,33,5
16,6,-11,-10,13,-2,8,44,47,41,32,5
16,7,-10,-11,12,-1,7,41,44,39,31,5
15,7,-9,-11,12,-1,6,39,41,37,30,5
15,7,-8,-11,11,0,5,36,39,34,29,6
14,7,-8,-11,11,0,5,34,36,32,27,6
14,7,-7,-10,10,0,4,31,33,29,26,6
13,7,-6,-10,9,1,4,28,30,27,25,6
13,7,-6,-9,9,1,3,26,28,25,23,6
12,8,-5,-9,8,1,3,24,26,23,22,6
12,8,-5,-9,8,1,2,22,24,21,20,6
11,8,-4,-9,7,1,2,20,22,19,18,5
11,8,-4,-9,7,2,1,19,20,17,17,5
11,8,-3,-9,7,2,1,18,18,15,16,4
11,8,-3,-9,7,3,1,17,17,13,15,4
11,8,-2,-9,7,3,1,16,15,12,13,3
11,8,-2,-9,6,3,0,15,14,10,12,3
10,8,-2,-8,6,3,0,14,12,8,10,2
10,8,-1,-8,5,3,0,13,11,7,9,2
9,8,-1,-7,5,3,0,12,9,6,7,1
8,7,-1,-7,5,3,0,11,8,5,6,0
8,7,-1,-6,5,2,0,10,7,3,5,0
7,6,-1,-6,5,2,0,10,6,2,4,0
7,6,-1,-6,5,2,0,9,6,1,3,-1
7,5,-1,-5,4,1,0,9,5,0,2,-2
6,5,-1,-5,4,1,0,9,5,0,1,-2
5,4,-1,-5,4,1,0,9,4,0,0,-3
5,4,-1,-4,4,1,0,8,4,-1,0,-3
5,5,-1,-5,4,1,0,8,4,-1,-1,-4
6,5,-1,-5,4,1,1,8,4,-1,-1,-4
6,4,-2,-4,4,0,1,8,4,-1,-2,-5
5,3,-2,-3,4,0,1,8,4,-2,-2,-5
4,3,-2,-3,4,0,1,8,4,-2,-3,-6
4,3,-2,-3,4,0,1,8,4,-2,-3,-6
4,3,-2,-3,4,0,1,8,4,-3,-3,-6
4,2,-2,-3,3,0,1,8,3,-3,-4,-7
4,2,-2,-3,3,0,1,8,3,-3,-4,-7
4,2,-2,-3,3,-1,1,8,3,-3,-5,-7
3,1,-2,-2,2,-1,1,8,3,-3,-5,-7
3,1,-2,-2,2,-1,1,8,3,-3,-5,-7
2,1,-2,-1,2,-1,1,8,3,-3,-5,-7
2,1,-2,-1,2,-1,1,8,3,-3,-5,-7
2,1,-2,-1,2,-1,2,8,3,-3,-5,-7
2,1,-2,-1,2,-1,2,8,3,-3,-5,-7
2,0,-2,-1,2,-1,2,8,3,-3,-6,-7
2,0,-2,-1,2,-2,2,8,3,-3,-6,-8
2,0,-2,0,2,-2,2,8,3,-3,-6,-8
2,-1,-2,0,2,-2,2,8,3,-3,-6,-8
2,-1,-2,0,2,-2,2,8,3,-3,-6,-8
1,-1,-2,0,2,-2,2,8,3,-3,-6,-8
1,-1,-2,0,2,-2,2,9,3,-3,-6,-8
1,0,-2,0,2,-2,2,9,3,-3,-6,-8
1,0,-2,0,2,-2,2,9,3,-2,-6,-8
1,0,-2,0,2,-2,3,9,3,-2,-6,-8
1,0,-2,0,2,-2,3,9,3,-2,-6,-8
1,-1,-2,0,2,-2,3,9,4,-2,-6,-8
1,-1,-2,0,2,-2,4,10,4,-2,-5,-8
1,-1,-2,0,2,-2,4,10,4,-1,-5,-8
1,-1,-2,0,2,-2,4,10,4,-1,-5,-8
1,-1,-2,0,2,-2,4,10,4,-1,-5,-8
1,-1,-2,0,2,-2,4,10,4,-1,-5,-8
1,-1,-2,0,2,-2,4,10,5,-1,-5,-8
1,-1,-2,0,2,-2,4,10,5,-1,-5,-8
1,-1,-2,0,1,-2,4,10,5,-1,-5,-8
0,-1,-2,0,1,-2,4,10,5,-1,-5,-8
0,-2,-1,1,0,-2,4,10,5,-1,-5,-8
-1,-2,-1,1,0,-2,4,10,5,-1,-5,-8
0,-2,-1,1,0,-2,4,10,5,-1,-5,-8
0,-1,-1,0,1,-2,4,10,6,-1,-4,-8
0,-1,-1,0,1,-2,4,10,6,-1,-4,-7
1,0,-1,0,1,-1,4,10,6,0,-4,-7
1,0,-1,0,1,-1,4,10,6,0,-4,-6
1,0,-1,0,1,-1,4,10,7,0,-3,-6
1,1,0,-1,1,0,4,11,7,1,-3,-6
1,1,0,-1,1,0,4,11,7,1,-3,-6
1,1,0,-1,1,0,4,11,8,1,-3,-6
1,2,0,-1,1,0,4,11,8,1,-2,-5
1,2,1,-2,1,1,4,11,8,2,-2,-5
1,3,1,-2,0,1,4,12,8,2,-2,-5
1,3,1,-2,0,1,4,12,8,2,-2,-5
1,3,1,-1,0,1,3,12,8,2,-1,-5
1,3,1,-2,0,2,3,12,8,2,-1,-5
1,3,2,-2,0,2,2,12,8,2,-1,-5
1,4,2,-2,0,3,2,12,8,2,-1,-4
1,4,2,-2,0,3,1,12,8,2,-1,-4
1,4,2,-2,-1,3,1,11,8,2,-1,-4
1,4,3,-2,-1,4,0,11,9,3,-1,-4
2,5,3,-3,-1,4,0,11,9,3,0,-3
2,6,3,-3,-1,4,0,11,9,4,0,-3
2,6,3,-4,-1,4,-1,11,9,4,0,-3
3,6,3,-4,0,4,-2,10,9,4,0,-3
3,6,3,-4,0,4,-2,10,8,4,0,-3
3,6,3,-4,0,4,-3,9,8,4,0,-3
3,6,3,-4,0,4,-3,9,7,3,0,-3
3,6,2,-4,0,4,-4,8,7,3,0,-3
3,6,2,-4,0,4,-4,8,6,2,0,-3
3,6,2,-4,0,4,-5,7,6,2,0,-3
3,6,2,-4,0,4,-5,7,5,1,0,-3
3,6,2,-4,0,4,-5,6,5,1,-1,-3
3,6,2,-4,0,4,-5,6,4,1,-1,-2
3,7,2,-5,0,4,-5,6,4,1,-1,-2
4,7,2,-5,0,4,-5,6,4,1,-1,-2
4,7,2,-5,1,4,-5,6,4,1,-2,-2
4,6,1,-5,1,4,-4,6,4,0,-2,-2
5,6,0,-5,2,3,-4,6,4,0,-2,-2
5,6,0,-5,3,3,-3,6,4,0,-1,-1
6,6,-1,-5,4,2,-3,7,4,1,-1,-1
6,5,-2,-5,4,1,-2,7,4,1,0,-1
7,5,-3,-5,5,0,-2,7,4,1,0,-1
7,4,-4,-5,5,0,-2,7,4,1,0,-1
7,4,-5,-5,6,-1,-3,7,4,1,-1,-1
8,3,-5,-5,7,-1,-3,7,4,1,-1,0
7,3,-5,-5,6,-2,-3,7,4,1,-1,0
7,3,-5,-4,6,-2,-2,7,4,1,-1,-1
6,2,-5,-4,6,-1,-1,7,4,1,-1,-1
5,1,-4,-3,5,-1,0,7,4,1,-2,-2
3,0,-3,-1,3,-1,0,7,4,1,-2,-2
1,0,-3,0,2,-1,1,7,4,0,-3,-3
0,-1,-2,0,1,-2,2,8,4,0,-3,-4
-1,-2,-2,1,0,-2,2,8,4,0,-4,-4
-1,-3,-2,2,0,-2,3,8,4,0,-4,-5
-2,-3,-2,2,0,-2,3,9,4,0,-5,-5
-2,-4,-2,3,0,-3,3,9,4,0,-5,-6
-2,-4,-3,3,0,-3,3,9,4,-1,-6,-6
-2,-4,-3,4,0,-4,3,9,4,-1,-6,-6
-2,-5,-3,4,0,-4,3,9,4,-1,-6,-6
-2,-5,-3,4,0,-4,3,9,4,-1,-6,-6
-2,-5,-3,3,0,-4,3,9,4,-1,-6,-7
-2,-4,-3,3,0,-4,4,9,3,-1,-6,-7
-2,-4,-3,3,0,-4,4,9,3,-1,-6,-7
-2,-4,-3,3,0,-4,4,9,3,-1,-6,-7
-2,-4,-3,3,0,-4,4,9,3,-1,-6,-7
-2,-4,-3,3,0,-4,4,9,3,-1,-6,-7
-2,-4,-3,3,0,-4,4,9,3,-1,-6,-7
-2,-4,-3,3,0,-4,3,9,3,-1,-6,-7
-1,-4,-3,3,0,-4,3,9,3,-1,-6,-7
-1,-3,-3,2,1,-4,4,9,3,-1,-6,-7
0,-3,-3,2,1,-4,4,9,3,-1,-6,-7
0,-3,-3,1,2,-3,4,9,3,-1,-6,-7
0,-3,-3,1,2,-3,4,9,4,-1,-6,-7
0,-2,-3,1,2,-3,4,9,4,-1,-6,-6
1,-2,-3,1,2,-3,4,9,4,-1,-6,-6
1,-2,-3,1,2,-3,4,9,4,-1,-6,-6
0,-3,-3,1,2,-3,4,9,4,-1,-6,-7
0,-4,-4,2,1,-3,4,8,4,-1,-6,-7
0,-4,-4,2,1,-3,4,8,4,-1,-6,-7
0,-4,-4,2,2,-3,4,9,4,-1,-6,-7
0,-3,-4,1,2,-3,4,10,5,0,-5,-6
1,-3,-4,1,3,-3,5,13,8,1,-5,-6
1,-3,-4,0,3,-3,6,18,12,3,-3,-5
2,-3,-5,0,4,-3,7,25,17,6,-2,-4
4,-2,-6,-1,5,-3,8,30,21,9,0,-3
5,-1,-7,-2,6,-3,8,32,24,12,2,-2
6,0,-7,-3,7,-3,7,31,24,14,4,-1
7,1,-7,-4,7,-3,7,26,22,15,5,0
7,3,-5,-5,6,-1,6,15,15,15,6,1
5,5,0,-4,2,2,5,-2,1,10,5,1
1,6,5,-3,-2,5,5,-23,-17,3,4,1
-2,8,10,-3,-6,9,4,-44,-37,-5,2,1
-4,10,14,-3,-9,12,3,-63,-57,-14,0,2
-6,13,19,-3,-13,16,0,-83,-76,-23,-1,3
-8,17,24,-4,-16,21,-5,-105,-97,-34,-3,4
-9,20,28,-5,-19,25,-13,-127,-118,-45,-4,7
-9,23,31,-6,-20,27,-23,-149,-138,-56,-5,11
-9,25,32,-7,-20,28,-35,-170,-155,-65,-4,15
-7,27,33,-9,-20,30,-45,-187,-171,-74,-3,21
-5,30,33,-12,-20,32,-54,-201,-184,-83,-3,26
-3,33,34,-15,-19,34,-62,-209,-195,-91,-2,31
-1,37,35,-17,-19,36,-68,-215,-202,-99,-2,35
0,39,36,-19,-19,38,-74,-219,-209,-107,-2,39
1,40,36,-20,-18,38,-79,-224,-215,-115,-3,42
2,41,36,-21,-17,39,-83,-228,-220,-122,-5,45
2,40,36,-20,-17,39,-86,-231,-224,-130,-8,46
1,39,36,-20,-17,38,-88,-233,-227,-137,-13,47
0,39,37,-19,-18,39,-89,-234,-230,-144,-18,47
0,40,40,-19,-20,40,-91,-236,-233,-151,-23,47
-2,41,43,-19,-23,42,-93,-238,-237,-158,-30,46
-3,43,46,-19,-25,45,-95,-239,-239,-166,-36,44
-4,45,50,-19,-28,48,-96,-239,-240,-171,-43,43
-6,48,54,-20,-30,51,-96,-237,-240,-176,-49,41
-7,50,57,-20,-32,53,-96,-233,-238,-179,-56,39
-8,52,59,-21,-33,56,-96,-227,-234,-180,-61,38
-9,53,61,-22,-35,58,-95,-219,-227,-179,-64,38
-9,54,62,-22,-36,59,-93,-208,-218,-174,-65,38
-9,54,62,-22,-36,58,-89,-196,-206,-168,-65,39
-9,53,61,-22,-35,57,-84,-182,-193,-159,-63,40
-8,51,58,-21,-34,55,-79,-168,-179,-150,-59,41
-7,47,54,-19,-31,51,-73,-154,-165,-140,-56,43
-6,43,48,-18,-27,46,-68,-142,-152,-131,-51,45
-5,38,42,-16,-23,40,-63,-130,-141,-122,-47,47
-4,32,35,-13,-19,34,-58,-118,-130,-114,-44,49
-3,25,27,-11,-15,27,-53,-107,-118,-106,-40,51
-1,19,19,-8,-10,19,-48,-95,-107,-98,-35,53
1,11,9,-6,-4,11,-42,-83,-95,-89,-30,55
2,3,0,-2,1,2,-37,-71,-84,-81,-25,56
4,-5,-10,1,7,-7,-32,-61,-74,-74,-21,57
5,-12,-19,3,12,-16,-27,-51,-65,-67,-17,58
7,-19,-27,6,17,-23,-23,-43,-57,-61,-14,57
7,-24,-32,8,20,-28,-19,-36,-50,-55,-12,56
7,-27,-36,10,22,-31,-16,-30,-43,-49,-10,55
7,-29,-37,11,22,-33,-13,-23,-36,-43,-8,52
7,-29,-37,11,22,-33,-9,-17,-30,-37,-6,47
6,-29,-36,12,20,-32,-6,-11,-23,-31,-4,42
5,-27,-33,12,18,-30,-3,-6,-17,-25,-3,36
4,-24,-29,11,16,-26,-1,-1,-11,-19,-2,31
3,-20,-24,9,14,-22,1,3,-5,-13,-1,26
3,-15,-19,7,11,-17,2,7,0,-8,0,21
2,-12,-15,5,9,-13,3,11,5,-3,0,16
2,-9,-12,4,7,-10,4,14,9,0,0,11
2,-8,-10,3,5,-8,5,17,12,3,0,6
2,-7,-8,2,4,-7,7,20,16,5,-1,2
1,-6,-7,2,4,-6,8,22,18,7,-1,-1
0,-7,-7,3,3,-6,9,24,20,8,-2,-4
-1,-7,-6,4,2,-6,9,25,21,9,-2,-6
-2,-6,-5,5,1,-5,10,25,21,10,-3,-7
-2,-6,-5,5,1,-5,10,26,21,10,-3,-7
-2,-6,-4,5,0,-5,10,26,22,10,-3,-8
-2,-6,-4,5,0,-5,10,26,22,10,-3,-8
-2,-6,-4,4,0,-5,10,27,23,10,-3,-9
-2,-6,-4,4,0,-5,10,27,23,10,-3,-9
-2,-6,-4,4,0,-5,11,28,24,11,-3,-10
-2,-6,-4,4,0,-5,11,28,24,11,-3,-10
-2,-6,-4,4,0,-5,11,28,24,11,-3,-11
-2,-6,-4,5,0,-5,11,28,24,11,-3,-11
-2,-6,-4,5,0,-5,11,28,24,11,-3,-11
-2,-6,-4,5,0,-5,11,28,24,11,-3,-11
-2,-6,-4,5,0,-5,11,28,24,11,-3,-11
-2,-6,-4,5,0,-5,11,28,25,11,-3,-12
-3,-6,-4,5,0,-5,11,28,25,11,-3,-12
-3,-6,-4,5,-1,-4,11,28,25,11,-3,-12
-4,-6,-4,5,-1,-4,11,28,25,12,-3,-12
-4,-6,-4,5,-1,-4,11,28,25,12,-3,-12
-4,-6,-4,5,0,-4,11,29,26,12,-2,-12
-3,-6,-4,5,0,-4,10,29,26,13,-2,-12
-3,-6,-4,5,0,-4,10,29,26,13,-2,-12
-3,-6,-4,5,0,-4,10,29,26,13,-2,-12
-2,-5,-4,4,0,-4,10,30,27,13,-2,-12
-2,-5,-3,4,0,-4,10,30,27,13,-2,-12
-1,-5,-3,4,0,-4,10,30,27,13,-2,-12
-1,-5,-3,4,0,-4,10,30,27,13,-2,-12
-1,-5,-3,4,0,-4,10,30,27,14,-2,-12
-1,-5,-3,4,0,-4,10,31,28,14,-2,-12
-2,-5,-3,4,0,-4,10,31,28,14,-2,-12
-2,-6,-3,4,0,-4,10,31,28,14,-2,-12
-2,-6,-3,4,0,-4,10,31,28,14,-2,-11
-2,-5,-3,3,0,-4,11,32,29,15,-1,-11
-1,-4,-3,3,1,-4,11,32,29,15,-1,-11
-1,-4,-3,2,1,-4,11,32,30,16,-1,-11
-1,-4,-3,3,1,-4,11,33,30,16,-1,-11
-1,-4,-3,3,1,-4,11,33,31,16,-1,-11
-1,-4,-3,3,1,-4,11,34,31,16,0,-11
-1,-4,-3,3,1,-4,11,34,32,16,0,-11
-1,-4,-3,3,1,-4,11,35,32,17,0,-11
-1,-4,-4,3,1,-4,11,35,33,17,0,-11
-1,-4,-4,3,1,-4,11,36,33,18,0,-11
-1,-4,-4,3,1,-4,12,36,34,18,0,-11
-1,-5,-4,3,1,-4,12,37,34,18,0,-11
-1,-5,-4,3,1,-4,12,37,35,19,0,-11
-1,-5,-4,3,1,-4,12,38,35,19,0,-12
0,-4,-4,3,1,-4,12,38,36,20,0,-12
0,-4,-4,3,1,-4,13,39,36,20,1,-12
0,-4,-4,2,1,-4,13,40,37,21,1,-12
0,-4,-4,2,1,-4,13,40,38,21,1,-12
0,-4,-4,2,1,-4,13,41,38,22,1,-12
0,-5,-4,2,1,-4,14,42,39,22,1,-12
0,-5,-4,2,1,-4,14,42,40,23,2,-12
0,-5,-4,2,2,-4,14,43,41,23,2,-12
0,-4,-4,2,2,-4,15,44,42,24,3,-12
0,-4,-4,2,2,-4,15,45,43,24,3,-12
0,-4,-4,2,2,-4,15,46,44,25,4,-12
0,-4,-5,2,2,-4,15,47,45,26,4,-12
1,-4,-5,1,2,-4,16,48,46,27,4,-12
1,-4,-5,1,2,-4,16,49,47,27,5,-12
1,-4,-5,1,3,-4,16,50,48,28,5,-12
1,-4,-5,1,3,-4,16,51,49,29,6,-12
1,-4,-5,1,3,-4,17,52,50,30,6,-12
1,-4,-5,1,3,-5,17,53,51,31,7,-12
0,-5,-5,2,3,-5,17,54,52,31,7,-12
0,-5,-5,2,3,-5,17,56,54,32,7,-12
0,-5,-5,2,3,-5,18,57,55,33,7,-12
1,-5,-5,2,3,-5,18,58,56,34,8,-12
1,-4,-6,1,3,-5,18,59,57,35,8,-12
2,-4,-6,1,3,-5,19,60,59,36,9,-12
2,-3,-6,0,4,-5,19,61,60,37,9,-12
3,-3,-7,0,4,-5,20,62,61,38,10,-12
3,-3,-7,0,5,-5,20,63,62,39,11,-12
4,-3,-7,0,5,-5,20,64,63,40,11,-12
4,-3,-7,-1,6,-5,20,65,64,41,12,-12
5,-3,-7,-1,6,-5,21,66,65,42,12,-12
5,-3,-7,-1,6,-5,21,67,66,43,13,-12
5,-3,-8,-1,6,-5,21,68,67,44,13,-12
5,-3,-8,-1,6,-5,22,69,68,45,14,-12
6,-3,-8,-1,7,-5,22,70,69,46,15,-11
7,-2,-8,-2,7,-5,22,71,70,47,16,-11
7,-2,-9,-3,8,-5,22,72,71,48,16,-11
7,-2,-9,-3,8,-5,22,73,72,48,17,-11
7,-2,-9,-2,8,-5,22,74,73,49,17,-11
7,-2,-10,-2,8,-5,22,74,74,50,18,-10
7,-2,-10,-2,8,-6,22,75,75,51,19,-10
7,-2,-11,-2,9,-6,22,75,75,52,19,-10
8,-3,-11,-2,9,-7,22,76,76,53,20,-10
8,-3,-11,-2,10,-7,22,76,76,53,20,-10
8,-3,-11,-3,10,-7,22,76,76,54,21,-9
9,-3,-11,-3,10,-7,22,77,76,54,22,-9
9,-3,-11,-3,11,-7,22,77,77,55,22,-8
10,-2,-12,-4,11,-7,22,77,77,55,23,-8
11,-2,-12,-4,12,-7,22,77,77,56,24,-7
12,-1,-12,-5,12,-7,22,77,77,56,25,-7
12,-1,-13,-5,12,-7,22,77,77,57,25,-6
11,-1,-13,-5,12,-7,21,76,77,57,26,-6
11,-1,-13,-5,12,-7,21,75,77,57,26,-5
12,-1,-13,-5,13,-7,20,74,76,57,27,-4
12,-1,-13,-5,13,-7,19,73,75,57,28,-4
13,-1,-13,-6,13,-7,18,72,74,57,28,-3
13,0,-13,-6,13,-7,17,70,73,57,29,-2
14,0,-13,-6,13,-6,16,69,71,56,29,-2
14,0,-13,-6,14,-6,15,67,70,56,29,-1
14,1,-13,-6,14,-6,14,66,68,55,30,-1
14,1,-13,-7,14,-6,13,64,67,54,30,0
15,1,-13,-7,14,-5,12,62,65,53,30,0
15,2,-13,-8,14,-5,12,60,64,52,30,1
15,2,-13,-8,14,-5,11,58,62,50,30,2
15,2,-13,-8,14,-5,10,56,59,49,30,3
16,3,-12,-8,14,-4,9,53,57,47,30,4
16,4,-12,-9,13,-4,8,51,55,46,30,4
16,5,-11,-9,13,-3,7,48,52,44,30,5
16,5,-11,-10,13,-3,6,46,50,42,29,5
15,5,-10,-10,13,-2,5,43,47,40,29,6
15,6,-9,-10,12,-1,4,40,45,38,28,6
15,6,-8,-10,12,-1,3,38,42,36,27,6
14,7,-7,-10,11,0,2,35,39,34,26,6
14,7,-6,-10,10,0,1,33,36,32,24,6
13,7,-5,-10,9,0,0,30,34,30,23,6
13,8,-5,-10,8,1,0,27,31,27,22,6
12,8,-4,-10,8,1,-1,25,29,25,21,6
12,9,-3,-10,7,2,-1,23,27,23,19,6
11,9,-3,-10,7,3,-2,21,25,21,18,6
11,9,-2,-9,6,3,-2,19,23,19,16,6
11,9,-2,-9,6,4,-2,17,21,17,15,5
11,9,-1,-9,6,4,-2,16,19,15,14,5
11,9,-1,-9,6,4,-2,14,17,13,12,4
10,9,0,-9,5,5,-3,13,15,12,11,4
10,9,0,-9,5,5,-3,11,14,10,9,3
9,9,0,-9,4,5,-4,10,12,8,8,2
9,9,0,-8,4,5,-4,9,11,7,7,1
8,8,0,-8,4,5,-4,8,10,5,5,1
8,8,0,-7,4,5,-4,8,9,4,4,0
7,8,0,-7,3,5,-4,7,8,3,3,0
6,7,0,-6,3,4,-5,7,7,2,1,0
5,7,0,-6,2,4,-5,6,6,1,0,-1
5,7,0,-6,2,4,-5,6,6,0,0,-2
5,7,0,-6,2,4,-4,5,5,0,-1,-2
5,6,0,-5,2,3,-4,5,5,-1,-2,-3
5,6,0,-5,2,3,-4,4,4,-2,-2,-3
5,6,0,-5,2,3,-4,4,4,-2,-3,-4
4,5,0,-5,2,3,-3,3,3,-3,-3,-4
4,5,0,-4,2,3,-3,3,3,-3,-4,-4
4,4,0,-4,2,3,-3,3,3,-3,-4,-5
4,4,0,-4,2,2,-3,3,3,-4,-5,-5
4,4,0,-4,2,2,-3,3,3,-4,-5,-6
4,4,0,-4,2,2,-3,3,3,-4,-6,-7
3,3,0,-4,1,2,-3,3,3,-4,-6,-7
3,2,0,-3,1,1,-3,3,2,-4,-7,-7
3,2,0,-2,1,1,-2,3,2,-4,-7,-7
3,2,0,-2,1,1,-2,3,2,-4,-7,-7
3,2,0,-2,1,1,-1,3,3,-4,-7,-7
3,2,0,-2,1,1,-1,3,3,-5,-7,-7
2,2,0,-2,1,1,-1,3,3,-5,-7,-8
2,2,0,-2,1,1,-1,4,3,-5,-7,-8
2,2,0,-2,1,1,-1,4,3,-5,-7,-8
2,2,0,-2,1,1,-1,4,3,-5,-7,-8
2,2,0,-2,1,1,-1,4,3,-5,-8,-8
2,2,0,-2,1,1,-1,4,3,-5,-8,-8
2,2,0,-2,1,1,-1,4,3,-5,-9,-9
1,1,0,-2,1,0,-1,4,3,-5,-9,-9
1,1,0,-1,1,0,-1,4,3,-5,-9,-9
1,1,0,-1,0,0,-1,4,3,-5,-9,-9
1,0,0,-1,0,0,-1,4,4,-5,-9,-9
1,0,0,-1,1,0,-1,5,4,-4,-9,-9
1,1,0,-1,1,0,-1,5,4,-4,-8,-9
1,1,0,-1,1,0,-1,5,4,-3,-8,-9
1,1,0,-1,1,0,-1,5,4,-3,-8,-8
1,1,0,-1,1,0,0,5,4,-3,-8,-8
1,1,0,-1,1,0,0,5,4,-3,-8,-8
1,1,0,-1,1,0,0,5,5,-3,-8,-8
1,1,0,-1,0,0,0,6,5,-3,-8,-8
1,1,0,-1,0,0,0,6,5,-3,-7,-8
1,0,0,-1,0,0,0,6,5,-3,-7,-8
0,0,0,-1,0,0,0,6,5,-3,-7,-8
0,0,0,-1,0,0,0,6,5,-3,-7,-8
0,0,0,0,0,0,0,6,5,-2,-7,-8
0,0,0,0,0,0,0,6,5,-2,-7,-8
0,0,0,0,0,0,0,6,5,-2,-7,-8
0,0,0,0,0,0,0,6,5,-2,-7,-8
0,0,0,0,0,0,0,6,6,-1,-7,-8
0,1,0,-1,0,0,0,6,6,-1,-7,-8
0,1,0,-1,0,0,0,6,6,-1,-7,-8
1,2,0,-2,0,1,0,6,6,0,-7,-7
1,2,0,-2,0,1,0,7,6,0,-6,-7
1,2,1,-2,0,2,0,7,6,0,-6,-7
1,2,1,-2,0,2,0,7,7,0,-6,-7
1,3,1,-2,0,2,1,7,7,0,-6,-7
1,3,2,-2,0,2,1,8,8,0,-5,-7
0,3,2,-2,-1,2,1,8,8,1,-5,-7
0,3,3,-2,-1,2,1,8,8,1,-5,-7
0,3,3,-2,-1,2,1,8,8,1,-5,-7
1,4,4,-2,-1,3,1,8,8,2,-4,-6
1,5,4,-3,-1,3,1,8,8,2,-4,-6
1,5,4,-3,-1,3,0,8,8,3,-3,-5
1,5,4,-4,-1,4,0,8,9,3,-3,-5
2,6,4,-4,-1,4,0,8,9,3,-3,-4
2,6,4,-4,-1,5,0,8,10,3,-3,-4
2,7,4,-4,-1,5,0,8,10,3,-3,-3
2,7,4,-5,-1,6,-1,8,10,3,-3,-3
2,8,5,-5,-1,6,-2,8,10,3,-3,-3
2,8,5,-5,-1,6,-2,7,10,3,-3,-3
3,8,5,-5,-1,6,-3,7,10,3,-2,-3
3,8,5,-6,-1,7,-4,7,9,3,-2,-2
4,8,5,-6,-1,7,-4,7,9,3,-2,-2
4,8,5,-6,-1,7,-5,6,8,3,-2,-2
4,9,5,-6,-1,7,-5,5,8,3,-2,-2
4,9,5,-6,0,7,-6,5,7,3,-2,-2
4,9,4,-6,0,7,-7,4,7,2,-2,-2
4,9,4,-6,0,7,-7,3,6,2,-2,-2
4,9,5,-6,0,7,-7,3,6,2,-2,-2
4,9,5,-6,0,7,-7,2,5,2,-3,-2
4,9,5,-6,0,7,-7,2,5,2,-3,-2
4,9,5,-6,0,7,-7,2,5,2,-3,-2
5,9,5,-7,0,7,-7,2,5,2,-3,-2
5,9,4,-7,0,7,-7,2,5,1,-3,-2
5,9,4,-7,0,6,-7,2,4,1,-4,-2
5,8,3,-6,0,5,-7,2,4,0,-4,-2
5,7,1,-6,1,4,-6,2,4,0,-4,-1
6,6,0,-6,3,3,-6,3,4,1,-4,-1
7,5,-1,-6,3,2,-6,3,4,1,-4,-1
7,5,-1,-6,4,1,-6,3,4,1,-4,-1
8,5,-2,-6,4,1,-5,3,4,1,-4,-1
8,5,-3,-6,5,1,-5,3,4,0,-4,0
9,5,-3,-6,5,1,-4,3,4,0,-4,0
9,5,-4,-7,6,1,-4,3,4,0,-4,0
9,5,-4,-7,6,0,-4,3,3,0,-4,0
8,5,-4,-7,6,0,-3,3,3,0,-4,0
7,4,-3,-6,5,0,-2,3,3,0,-4,-1
5,3,-2,-4,3,0,-1,3,4,0,-4,-1
3,2,-1,-3,2,0,0,3,4,0,-5,-2
2,1,-1,-2,1,0,0,3,4,0,-6,-3
1,0,-1,0,0,0,0,3,4,0,-6,-4
0,0,0,1,-1,0,1,3,4,0,-7,-5
-1,-1,0,1,-1,0,1,3,4,0,-7,-5
-2,-1,0,2,-1,0,1,3,3,0,-7,-6
-2,-2,0,2,-1,0,1,3,3,0,-7,-6
-2,-2,0,2,-1,0,1,3,2,-1,-7,-6
-2,-2,0,2,-1,-1,1,3,2,-1,-8,-6
-2,-3,0,2,-1,-1,1,3,2,-1,-8,-6
-2,-2,0,2,-1,-1,1,3,2,-1,-8,-6
-2,-2,0,2,-1,-1,1,3,2,-1,-8,-6
-2,-2,0,2,-1,-1,1,3,2,-1,-8,-6
-2,-2,0,2,-1,-1,1,3,2,-1,-9,-6
-2,-3,0,3,-1,-1,1,3,2,-1,-9,-6
-2,-3,-1,3,-1,-1,2,3,2,-2,-9,-6
-2,-3,-1,3,-1,-2,2,3,2,-2,-9,-6
-2,-4,-1,3,-1,-2,2,3,2,-2,-9,-6
-2,-4,-2,3,0,-3,2,3,2,-2,-9,-6
-2,-4,-2,3,0,-3,2,3,2,-2,-9,-6
-2,-4,-2,3,-1,-3,2,3,2,-2,-9,-7
-2,-4,-2,4,-1,-3,2,3,2,-2,-9,-7
-2,-4,-2,3,-1,-3,2,3,2,-2,-9,-7
-2,-4,-2,3,-1,-3,2,3,2,-2,-9,-7
-1,-4,-2,2,-1,-2,2,3,2,-2,-9,-7
-1,-3,-1,2,-1,-2,2,3,2,-2,-9,-7
-1,-3,-1,2,-1,-2,2,3,2,-2,-9,-7
-1,-3,-1,2,-1,-2,2,3,2,-2,-9,-7
-1,-3,-1,2,-1,-2,2,3,2,-2,-9,-6
0,-3,-2,1,0,-2,2,3,2,-2,-8,-6
-1,-4,-2,2,0,-3,2,3,2,-2,-8,-6
-1,-4,-2,3,0,-3,2,5,3,-1,-8,-6
-1,-4,-2,2,0,-3,2,9,6,1,-7,-6
0,-4,-3,1,1,-3,3,14,11,3,-6,-5
2,-3,-4,0,2,-3,3,20,16,6,-5,-4
3,-2,-5,-1,3,-3,3,24,20,9,-3,-3
5,0,-5,-2,4,-3,3,26,22,11,-1,-2
6,1,-5,-4,5,-2,3,25,22,13,1,0
7,2,-4,-5,5,0,3,19,20,15,3,1
6,4,-1,-6,3,1,2,7,12,14,5,2
3,6,3,-5,0,5,2,-11,-2,9,4,3
-1,7,9,-4,-5,8,2,-32,-21,2,2,3
-4,9,14,-3,-9,11,1,-51,-40,-6,0,3
-6,11,19,-3,-13,15,0,-70,-59,-14,-1,3
-7,15,24,-4,-16,19,-4,-90,-78,-24,-3,5
-8,20,29,-5,-20,24,-10,-112,-99,-35,-4,7
-9,23,33,-7,-22,28,-18,-135,-119,-47,-6,10
-8,26,35,-8,-22,30,-28,-156,-138,-57,-6,14
-7,28,36,-10,-22,32,-39,-176,-155,-66,-5,19
-7,30,37,-11,-22,33,-49,-192,-170,-74,-5,24
-6,32,39,-13,-22,35,-58,-205,-183,-83,-4,28
-4,35,40,-15,-22,38,-66,-212,-192,-91,-4,33
-2,39,42,-18,-23,40,-72,-217,-199,-98,-5,37
0,43,43,-20,-23,42,-77,-222,-205,-106,-5,40
0,45,44,-22,-23,44,-82,-226,-211,-113,-7,43
0,45,44,-22,-23,44,-86,-229,-215,-121,-9,46
0,45,45,-22,-23,44,-87,-231,-219,-128,-13,47
-1,44,45,-21,-24,44,-89,-232,-222,-134,-17,48
-2,43,47,-21,-25,45,-90,-234,-224,-140,-22,48
-4,44,49,-20,-27,47,-92,-236,-227,-147,-28,47
-5,46,52,-20,-29,49,-94,-238,-230,-154,-35,46
-6,48,56,-20,-32,52,-96,-238,-232,-160,-41,45
-7,51,60,-21,-35,55,-97,-237,-233,-165,-47,43
-8,54,63,-22,-37,59,-97,-234,-232,-169,-54,42
-9,56,66,-22,-39,61,-97,-229,-229,-172,-60,40
-11,57,68,-22,-40,62,-97,-223,-225,-172,-64,39
-12,57,70,-22,-41,63,-96,-214,-218,-169,-67,38
-12,57,70,-23,-41,63,-93,-203,-208,-165,-67,39
-11,56,68,-23,-40,62,-89,-191,-196,-158,-66,40
-11,55,66,-22,-39,60,-83,-177,-183,-150,-63,42
-10,52,62,-20,-37,56,-77,-163,-169,-141,-59,45
-8,47,55,-19,-33,51,-72,-149,-156,-132,-54,47
-7,41,48,-17,-29,44,-67,-137,-144,-123,-49,50
-5,35,41,-15,-24,38,-63,-126,-133,-114,-45,52
-3,28,33,-13,-19,30,-58,-114,-122,-106,-42,54
-2,21,24,-10,-14,23,-53,-103,-111,-99,-38,55
0,14,16,-8,-8,15,-48,-91,-100,-91,-34,57
1,7,7,-5,-3,7,-42,-80,-89,-83,-30,59
3,0,-2,-1,2,-1,-37,-69,-78,-76,-26,60
4,-8,-12,2,7,-10,-32,-60,-69,-69,-22,61
5,-14,-20,5,12,-17,-28,-51,-61,-63,-19,60
7,-19,-26,6,15,-23,-24,-44,-54,-57,-17,59
7,-22,-30,7,18,-26,-21,-37,-47,-51,-16,57
7,-24,-31,8,19,-28,-19,-31,-41,-46,-14,54
7,-25,-31,8,19,-28,-16,-24,-34,-39,-12,50
7,-24,-30,9,18,-28,-13,-18,-27,-33,-10,45
6,-23,-29,9,17,-27,-10,-13,-21,-27,-8,39
6,-21,-26,8,15,-24,-7,-8,-15,-22,-7,33
5,-18,-23,7,13,-21,-4,-2,-8,-16,-5,29
5,-14,-19,4,11,-16,-1,2,-2,-9,-3,24
5,-11,-15,2,9,-12,0,6,2,-4,-2,20
3,-9,-11,2,7,-10,1,9,6,0,-2,15
2,-7,-8,1,5,-8,2,12,10,3,-3,10
3,-5,-7,1,4,-6,3,14,13,5,-3,5
3,-3,-5,0,3,-5,5,16,16,7,-3,1
2,-3,-4,0,2,-4,6,18,18,9,-3,-1
2,-2,-3,0,1,-3,7,20,19,10,-3,-3
1,-2,-2,0,0,-2,7,21,21,11,-4,-4
1,-2,-2,0,0,-2,7,22,22,12,-4,-5
1,-2,-2,0,0,-2,7,23,22,12,-4,-5
1,-2,-2,0,1,-2,7,23,22,13,-4,-5
1,-2,-2,0,1,-2,7,23,22,13,-5,-6
1,-2,-2,0,1,-2,8,23,23,13,-5,-7
0,-2,-2,1,0,-2,8,24,23,13,-5,-8
0,-2,-2,1,0,-2,9,24,24,14,-5,-8
0,-2,-2,0,0,-2,9,25,24,14,-5,-9
0,-2,-1,0,0,-2,8,25,24,14,-5,-9
0,-2,-1,0,0,-2,8,25,24,14,-5,-9
0,-2,-1,0,0,-2,8,25,24,14,-5,-9
0,-2,-1,0,0,-2,8,25,25,14,-5,-9
0,-2,-1,1,0,-2,8,25,25,15,-5,-9
0,-2,-1,0,0,-2,8,26,25,15,-5,-9
0,-2,-1,0,0,-1,8,26,25,16,-4,-9
1,-1,-1,0,0,-1,8,26,26,16,-4,-9
1,-1,-1,0,0,-1,8,26,26,16,-4,-9
1,-1,-1,0,0,-1,8,26,26,16,-4,-9
1,-1,-1,0,0,-1,8,26,25,16,-5,-9
0,-1,-1,0,0,-1,8,26,25,16,-5,-10
0,-1,0,0,0,-1,7,26,25,16,-5,-10
0,-1,0,0,0,-1,7,26,26,16,-5,-10
0,-1,0,0,0,-1,8,26,26,16,-5,-10
0,-2,-1,0,0,-2,8,26,26,16,-5,-10
0,-2,-1,1,0,-2,8,26,26,16,-5,-10
0,-3,-2,1,1,-3,8,27,26,16,-5,-10
0,-3,-2,0,1,-3,8,27,27,17,-5,-9
0,-3,-2,0,0,-3,8,27,27,17,-4,-9
0,-2,-2,0,0,-2,8,27,28,18,-4,-9
0,-2,-2,0,0,-2,8,28,28,18,-4,-9
0,-2,-2,0,0,-2,8,28,28,18,-4,-9
0,-2,-2,0,0,-2,8,28,29,18,-4,-10
1,-2,-2,0,1,-2,8,29,29,19,-4,-10
0,-2,-2,0,1,-2,8,29,29,19,-4,-10
0,-3,-2,0,1,-3,8,30,30,19,-4,-10
1,-2,-2,0,1,-2,9,30,31,20,-4,-10
1,-2,-2,-1,1,-2,9,31,31,20,-3,-9
2,-2,-2,-1,1,-2,9,31,32,21,-3,-9
1,-2,-2,0,1,-2,9,32,32,21,-3,-9
1,-3,-2,0,1,-2,8,32,32,22,-2,-9
1,-2,-2,0,1,-2,8,33,33,22,-2,-9
1,-2,-2,0,1,-2,8,33,33,23,-1,-8
1,-2,-2,0,1,-2,9,34,34,23,-1,-8
1,-2,-2,0,1,-2,9,34,35,24,-1,-8
1,-2,-2,0,1,-2,9,35,36,24,-1,-8
1,-2,-2,0,1,-2,9,35,36,24,-1,-8
1,-2,-3,0,2,-2,9,36,37,25,-1,-8
1,-2,-3,0,2,-2,10,37,38,25,-1,-8
1,-2,-3,0,2,-2,10,37,39,26,-1,-9
1,-2,-3,0,2,-3,10,38,39,27,-1,-9
1,-2,-2,0,2,-3,10,39,40,27,-1,-10
1,-1,-2,0,2,-2,9,40,41,28,0,-10
1,-1,-2,-1,2,-2,9,41,42,28,0,-10
1,-2,-2,0,2,-2,10,41,43,29,0,-11
1,-2,-2,0,2,-2,10,42,44,30,0,-11
2,-2,-3,0,2,-2,10,43,45,31,0,-11
2,-2,-3,0,3,-2,10,44,46,32,1,-10
2,-1,-2,-1,3,-2,10,45,47,33,3,-10
2,-1,-2,-1,3,-2,10,46,48,34,4,-9
3,0,-3,-2,3,-2,11,47,49,35,5,-9
3,0,-3,-2,3,-2,11,48,50,36,5,-8
3,-1,-3,-2,3,-2,11,49,51,37,5,-8
3,-1,-4,-2,3,-2,12,50,52,38,5,-8
3,-1,-4,-2,4,-2,12,51,53,38,5,-8
3,-2,-4,-2,4,-3,12,52,54,39,6,-8
3,-2,-4,-2,4,-3,12,54,56,40,6,-8
3,-2,-4,-2,4,-3,13,55,57,41,7,-8
4,-1,-4,-2,4,-3,14,57,58,42,7,-8
4,-1,-4,-3,4,-3,14,58,60,43,8,-8
4,0,-4,-3,4,-3,15,59,61,44,9,-8
4,0,-4,-3,4,-3,15,60,62,45,10,-8
4,0,-4,-3,4,-3,15,60,63,46,10,-8
5,0,-5,-3,5,-3,15,61,64,47,10,-8
5,0,-5,-3,5,-3,15,62,65,48,11,-8
5,-1,-5,-3,5,-3,15,63,66,49,11,-8
5,-1,-6,-3,5,-3,15,64,67,50,12,-8
6,-1,-6,-3,5,-3,15,65,69,52,13,-8
6,-1,-7,-3,6,-3,15,66,70,53,14,-7
7,-1,-7,-3,7,-3,15,67,71,54,15,-7
7,-1,-8,-3,7,-4,15,68,72,55,16,-7
7,-1,-8,-3,7,-4,15,69,73,55,16,-7
7,-1,-8,-3,7,-4,16,70,73,56,16,-7
7,-2,-8,-3,7,-5,16,71,74,57,17,-7
8,-2,-8,-3,7,-5,17,72,76,58,17,-7
8,-1,-8,-4,8,-5,17,73,77,59,18,-6
8,-2,-8,-3,8,-5,17,73,77,59,19,-7
8,-3,-9,-3,8,-6,16,73,78,60,19,-7
8,-3,-9,-3,8,-6,16,73,78,61,20,-6
10,-2,-10,-4,9,-6,16,74,78,62,22,-6
11,-1,-11,-5,10,-6,16,74,79,63,23,-5
11,-1,-11,-5,11,-6,16,75,79,64,24,-4
11,-1,-11,-5,11,-6,16,75,79,64,25,-3
11,-2,-11,-4,11,-6,16,75,79,64,25,-3
11,-2,-12,-4,11,-7,16,75,79,64,25,-3
11,-2,-12,-4,12,-7,15,74,80,65,26,-2
11,-2,-12,-5,12,-7,15,74,80,65,27,-2
11,-2,-13,-5,12,-8,14,73,79,65,27,-1
10,-3,-13,-4,12,-8,13,72,78,65,28,-1
10,-3,-13,-4,12,-8,13,71,77,65,28,0
11,-2,-13,-5,12,-8,12,70,76,65,29,1
11,-2,-13,-5,12,-8,12,68,75,64,29,1
11,-2,-13,-5,12,-8,11,67,74,63,30,2
11,-2,-13,-5,12,-8,11,65,72,63,30,2
12,-2,-13,-5,12,-7,10,63,71,62,31,3
12,-2,-13,-5,12,-7,10,61,68,61,32,4
12,-2,-13,-5,12,-7,9,59,66,60,32,5
12,-2,-12,-5,12,-7,8,56,64,59,32,6
12,-1,-12,-5,12,-7,7,54,61,57,32,6
12,-1,-12,-5,11,-7,6,52,59,55,31,7
11,0,-11,-5,11,-6,5,50,57,54,31,7
11,0,-11,-5,10,-6,4,47,54,52,30,8
10,0,-10,-5,10,-5,3,45,52,51,30,8
10,0,-10,-6,9,-5,2,42,50,49,29,8
10,1,-9,-6,9,-4,2,40,47,46,28,8
10,2,-8,-6,9,-4,1,37,44,44,27,8
10,2,-7,-6,8,-3,0,35,41,41,26,9
9,2,-7,-6,8,-3,0,32,39,39,25,9
9,2,-7,-6,8,-3,-1,30,37,37,24,10
8,1,-6,-5,7,-3,-1,28,34,35,23,10
6,0,-6,-4,6,-3,-2,25,32,32,21,10
5,0,-5,-4,5,-3,-2,23,29,30,19,10
5,0,-5,-4,5,-2,-3,20,26,28,17,10
6,1,-4,-4,4,-1,-3,18,23,26,16,9
6,2,-3,-5,4,0,-4,16,21,24,14,8
5,3,-2,-5,3,0,-5,15,19,21,12,7
5,3,-1,-5,3,0,-5,13,17,19,11,7
4,3,0,-5,2,1,-5,12,16,17,9,6
4,3,0,-4,2,1,-5,11,15,16,8,6
3,3,0,-4,1,1,-5,10,13,14,6,6
3,2,0,-3,1,1,-5,9,12,13,5,5
2,2,0,-3,1,0,-5,8,10,12,4,5
2,1,0,-2,1,0,-5,7,9,10,3,4
1,0,0,-1,1,0,-5,6,7,9,1,3
0,0,0,0,0,0,-5,5,7,7,0,2
0,0,0,0,0,0,-5,4,6,6,-1,1
0,0,0,0,0,0,-5,4,6,5,-2,0
0,0,0,0,0,0,-5,3,5,4,-3,0
-1,-1,0,0,0,-1,-5,3,4,3,-4,0
-1,-2,0,1,-1,-1,-5,2,3,3,-5,-1
-1,-2,0,2,-1,-1,-5,2,2,2,-5,-1
-2,-2,0,2,-1,-1,-5,2,2,2,-6,-2
-2,-3,0,2,-1,-2,-5,2,2,1,-7,-3
-3,-3,0,3,-1,-2,-4,2,2,0,-8,-4
-3,-3,-1,3,-1,-2,-4,2,2,0,-9,-4
-3,-3,-1,3,-1,-2,-4,2,2,0,-10,-5
-3,-4,-1,3,-2,-3,-4,1,1,0,-10,-5
-4,-5,-1,4,-2,-3,-4,1,1,0,-10,-5
-4,-6,-1,5,-2,-3,-4,1,0,0,-10,-6
-5,-6,0,5,-2,-3,-4,1,0,-1,-10,-6
-5,-6,0,5,-2,-4,-5,1,0,-1,-11,-6
-5,-6,-1,5,-2,-4,-5,1,0,-1,-11,-7
-5,-6,-1,5,-2,-4,-5,0,0,-1,-11,-7
-5,-6,-1,5,-2,-4,-5,0,0,-1,-12,-8
-5,-6,-1,5,-2,-4,-4,0,1,-1,-12,-8
-5,-6,-1,5,-2,-4,-4,1,1,-1,-12,-8
-5,-6,-1,5,-2,-4,-3,1,1,-1,-11,-7
-5,-6,-2,5,-1,-4,-3,1,1,-1,-11,-7
-5,-7,-2,6,-1,-5,-3,1,1,-1,-10,-6
-5,-8,-3,6,-1,-5,-2,1,1,-1,-10,-6
-5,-8,-3,6,-1,-5,-2,1,2,-1,-10,-6
-5,-8,-3,6,-1,-5,-2,1,2,0,-10,-6
-5,-7,-2,6,-2,-5,-2,1,2,0,-10,-6
-5,-7,-2,6,-2,-4,-2,1,2,0,-10,-6
-5,-6,-1,5,-2,-3,-2,2,2,0,-10,-6
-4,-5,-1,4,-2,-3,-1,2,2,0,-10,-6
-4,-6,-1,5,-2,-3,-1,2,2,0,-10,-6
-4,-6,-1,5,-2,-4,-1,2,2,1,-9,-6
-4,-7,-1,6,-2,-4,-1,2,2,1,-9,-6
-5,-7,-1,6,-2,-4,-1,2,2,1,-9,-7
-5,-7,-2,6,-2,-4,-1,2,2,1,-9,-7
-5,-7,-2,7,-2,-5,0,2,2,1,-9,-7
-5,-7,-2,7,-2,-5,0,2,3,1,-9,-7
-5,-7,-2,6,-2,-4,0,2,3,2,-8,-7
-5,-7,-2,6,-2,-4,0,2,4,2,-8,-7
-5,-7,-2,6,-2,-4,0,2,4,2,-8,-7
-6,-7,-1,6,-2,-4,0,2,4,2,-8,-7
-6,-7,-1,6,-2,-4,0,2,4,2,-8,-7
-5,-7,-1,5,-2,-4,0,2,4,2,-8,-7
-5,-7,-2,6,-2,-4,0,2,4,2,-8,-6
-6,-7,-2,6,-2,-5,0,3,4,2,-7,-6
-5,-7,-2,6,-2,-5,0,3,5,3,-7,-6
-5,-7,-2,6,-1,-4,0,3,5,3,-6,-6
-4,-6,-2,5,-1,-4,0,3,5,3,-6,-6
-4,-6,-2,5,-1,-3,0,4,5,4,-6,-5
-4,-5,-2,4,-1,-3,0,4,6,4,-5,-5
-4,-5,-1,4,-1,-3,0,5,6,5,-5,-5
-3,-4,-1,3,-1,-2,1,6,6,5,-4,-5
-3,-3,0,3,-1,-1,1,6,6,5,-4,-5
-3,-2,0,2,-2,0,1,6,7,6,-4,-5
-3,-2,1,2,-2,0,1,6,7,6,-4,-5
-3,-2,1,2,-3,0,1,6,7,5,-4,-5
-3,-2,1,2,-3,0,2,6,7,5,-4,-4
-2,-1,1,1,-2,0,2,7,8,6,-4,-4
-1,0,1,0,-1,0,2,7,9,7,-3,-3
-1,0,1,0,-1,0,2,7,10,7,-2,-2
-1,0,1,1,-2,0,1,7,10,8,-2,-2
-2,0,2,1,-2,1,0,6,9,8,-2,-2
-1,2,3,0,-2,3,-1,6,9,8,-1,-1
-1,3,4,-1,-2,4,-1,5,9,9,-1,-1
-1,4,5,-1,-3,4,-1,5,9,9,-1,-1
-1,4,5,-1,-3,4,-2,5,9,9,-1,-1
-1,3,4,-1,-3,3,-3,4,9,9,-1,-1
-1,2,4,0,-3,3,-3,4,9,8,-1,-1
-1,2,4,0,-3,3,-4,4,9,8,-1,-1
-1,2,4,-1,-2,3,-4,3,9,8,-1,0
-1,2,3,-1,-2,3,-5,3,9,7,-2,0
-1,2,3,-1,-2,3,-5,2,8,7,-2,0
-1,2,3,0,-2,3,-6,2,8,7,-2,0
-1,2,3,0,-2,3,-6,1,7,7,-1,0
-1,2,3,-1,-2,3,-6,0,7,7,-1,0
0,2,3,-1,-2,3,-6,0,6,6,-1,0
0,2,3,-2,-2,3,-5,0,6,6,-1,0
0,2,3,-2,-1,2,-5,0,6,6,-1,0
0,2,2,-1,-1,2,-5,0,6,6,-1,0
0,2,1,-1,-1,1,-5,0,5,6,-2,0
0,2,1,-1,0,1,-5,0,5,6,-2,0
1,2,0,-2,0,1,-5,0,5,6,-2,0
1,2,0,-2,0,1,-5,1,5,6,-2,0
2,2,0,-3,1,1,-4,1,5,6,-2,0
3,2,-1,-3,2,1,-4,2,6,6,-2,1
3,1,-1,-3,2,0,-4,2,6,6,-3,1
3,0,-2,-2,3,-1,-4,2,6,6,-3,1
3,-1,-4,-2,3,-3,-4,2,6,6,-3,2
3,-2,-5,-1,4,-4,-4,2,6,6,-3,2
4,-2,-6,-1,5,-4,-3,3,6,6,-3,2
4,-2,-6,-1,5,-4,-3,3,6,6,-3,2
3,-2,-5,-1,4,-3,-2,3,6,6,-3,1
2,-2,-4,0,3,-3,-1,3,6,6,-4,0
1,-2,-3,0,2,-2,0,4,6,6,-5,0
0,-2,-2,1,1,-2,0,4,6,5,-5,-1
-1,-3,-2,2,1,-3,1,4,6,5,-6,-2
-2,-4,-2,3,0,-3,2,5,6,5,-6,-2
-3,-6,-3,4,0,-4,3,5,6,5,-7,-2
-4,-6,-3,5,0,-4,3,5,6,5,-7,-2
-4,-7,-2,6,-1,-4,3,5,5,4,-8,-3
-5,-7,-2,6,-1,-4,4,5,5,4,-8,-3
-5,-7,-2,6,-1,-4,4,6,5,4,-8,-3
-5,-8,-3,7,-1,-5,4,6,5,4,-8,-3
-5,-9,-3,7,-1,-6,4,6,5,5,-8,-3
-5,-9,-3,7,-1,-6,4,6,5,5,-8,-4
-6,-9,-3,7,-1,-6,4,6,5,5,-9,-4
-6,-9,-3,7,-1,-6,4,5,5,4,-9,-5
-6,-10,-3,8,-1,-6,4,5,4,4,-10,-5
-6,-10,-4,8,-1,-7,4,5,4,4,-10,-5
-6,-10,-4,8,-1,-7,4,6,4,4,-10,-5
-6,-10,-4,8,-1,-7,4,6,4,4,-10,-5
-6,-10,-4,8,-1,-7,4,6,4,4,-10,-5
-6,-10,-3,7,-1,-7,4,6,4,4,-10,-5
-6,-10,-3,7,-1,-7,4,6,4,4,-10,-5
-6,-10,-3,7,-1,-7,4,6,4,4,-10,-5
-7,-10,-3,8,-1,-7,4,6,4,4,-10,-5
-7,-11,-4,9,-1,-8,4,6,3,4,-10,-5
-7,-12,-4,10,-1,-8,4,6,3,4,-10,-6
-7,-12,-4,10,-1,-8,4,5,3,4,-10,-6
-8,-12,-4,10,-1,-8,4,5,3,3,-11,-7
-8,-12,-4,10,-2,-8,4,5,3,3,-11,-7
-9,-13,-4,11,-2,-8,4,5,3,3,-11,-7
-9,-13,-4,11,-2,-9,4,5,3,3,-10,-7
-9,-14,-5,11,-2,-10,4,5,3,4,-10,-7
-10,-15,-5,12,-2,-11,3,5,3,4,-10,-7
-12,-17,-5,14,-3,-11,3,5,3,4,-10,-8
-13,-18,-5,15,-4,-12,2,7,5,5,-10,-8
-13,-18,-5,16,-3,-12,3,11,8,7,-9,-7
-12,-18,-6,15,-2,-12,3,16,13,10,-7,-6
-11,-18,-7,14,-1,-13,4,21,18,13,-5,-4
-10,-18,-8,14,0,-13,4,23,20,15,-3,-3
-9,-18,-8,14,0,-14,3,23,21,16,-2,-2
-9,-18,-8,14,0,-14,3,20,19,18,0,-1
-10,-17,-6,14,-1,-12,2,12,13,18,1,0
-13,-15,-2,14,-5,-9,1,-2,0,16,1,0
-16,-12,4,15,-10,-4,0,-21,-17,10,0,0
-20,-10,11,15,-15,0,0,-39,-37,2,0,2
-23,-7,16,15,-19,4,-1,-56,-56,-7,-1,3
-25,-4,21,14,-23,8,-2,-74,-75,-18,-2,5
-27,-1,27,14,-26,12,-6,-94,-96,-30,-4,7
-28,2,32,13,-30,17,-13,-115,-117,-43,-6,9
-29,6,36,12,-32,20,-21,-137,-139,-56,-7,13
-30,8,39,11,-34,23,-31,-157,-159,-68,-7,17
-30,10,41,10,-35,25,-42,-176,-177,-80,-7,22
-29,13,42,8,-36,27,-51,-191,-192,-92,-7,28
-28,15,43,5,-36,29,-59,-202,-205,-104,-6,34
-26,18,44,3,-35,31,-65,-208,-213,-114,-6,40
-24,21,45,1,-35,33,-70,-213,-220,-123,-7,44
-23,23,46,0,-34,34,-75,-216,-225,-132,-8,48
-23,24,47,0,-35,35,-79,-220,-229,-140,-11,51
-24,23,48,1,-36,35,-82,-223,-232,-147,-15,52
-26,22,48,3,-37,35,-84,-225,-235,-154,-22,51
-28,21,49,4,-38,34,-86,-227,-237,-161,-29,50
-30,21,51,4,-40,35,-88,-229,-239,-167,-36,49
-32,22,54,4,-43,37,-90,-231,-242,-174,-45,48
-33,24,57,4,-45,40,-91,-232,-244,-181,-53,47
-34,26,61,4,-47,43,-92,-231,-245,-188,-61,45
-36,28,65,4,-50,46,-93,-230,-245,-194,-70,43
-37,30,67,4,-52,48,-93,-227,-243,-198,-79,40
-38,31,69,4,-53,49,-93,-221,-239,-199,-87,37
-39,31,71,4,-54,50,-91,-214,-233,-197,-93,35
-40,30,70,4,-54,50,-89,-204,-224,-192,-95,34
-40,28,68,6,-54,47,-86,-192,-212,-185,-96,34
-41,25,65,7,-52,44,-82,-179,-198,-175,-93,35
-40,21,61,9,-50,40,-77,-166,-184,-164,-89,37
-39,17,55,11,-46,35,-72,-152,-169,-153,-84,38
-36,11,47,12,-41,28,-67,-139,-156,-142,-78,40
-34,5,39,14,-36,21,-62,-127,-143,-132,-72,42
-32,-2,30,17,-30,14,-57,-115,-131,-121,-66,44
-31,-9,20,19,-25,5,-52,-103,-119,-111,-60,47
-29,-17,11,22,-20,-3,-47,-92,-108,-102,-54,51
-27,-24,2,25,-15,-12,-42,-81,-97,-93,-48,53
-26,-32,-6,29,-10,-20,-37,-70,-86,-84,-42,55
-24,-39,-15,32,-4,-28,-32,-61,-76,-76,-38,56
-22,-46,-24,34,1,-35,-27,-52,-67,-68,-33,56
-20,-52,-31,36,5,-42,-24,-44,-60,-61,-29,55
-20,-56,-36,38,8,-46,-21,-37,-53,-55,-26,53
-20,-59,-39,39,10,-49,-18,-31,-46,-48,-23,51
-20,-60,-40,40,10,-50,-15,-25,-39,-41,-20,48
-21,-61,-40,41,10,-50,-12,-19,-33,-35,-18,44
-21,-60,-39,41,9,-49,-9,-13,-26,-29,-16,38
-21,-57,-36,39,8,-47,-6,-8,-20,-23,-15,32
-20,-52,-32,37,7,-43,-3,-3,-13,-16,-13,26
-18,-46,-28,33,6,-38,0,2,-7,-9,-10,22
-17,-40,-23,29,4,-32,2,6,-1,-3,-8,18
-17,-35,-18,26,2,-27,3,10,3,2,-7,13
-17,-31,-15,24,0,-23,4,12,7,6,-6,9
-17,-29,-13,23,-2,-21,4,14,10,8,-7,4
-18,-28,-11,23,-3,-20,6,16,13,11,-7,0
-17,-27,-10,22,-4,-19,7,19,15,13,-7,-3
-17,-25,-10,21,-3,-18,9,21,18,15,-6,-5
-16,-24,-9,20,-3,-17,11,23,20,17,-5,-6
-16,-23,-8,20,-2,-16,12,24,21,19,-5,-7
-15,-22,-8,19,-2,-15,13,25,21,20,-5,-7
-14,-21,-8,18,-2,-15,13,25,22,21,-5,-8
-13,-21,-8,17,-2,-15,12,26,22,21,-5,-8
-14,-21,-8,18,-2,-15,12,26,22,20,-5,-9
-14,-22,-7,18,-3,-15,12,26,22,20,-6,-10
-14,-21,-7,18,-3,-15,12,26,23,21,-6,-11
-14,-20,-7,17,-2,-14,13,27,23,22,-6,-12
-13,-19,-7,16,-2,-13,13,27,23,22,-5,-12
-13,-18,-6,16,-1,-13,13,28,24,22,-5,-12
-13,-18,-6,15,-1,-13,13,28,24,22,-5,-12
-13,-18,-6,15,-1,-13,13,28,24,22,-5,-11
-13,-19,-6,15,-1,-13,13,28,24,22,-5,-11
-12,-19,-6,15,-1,-13,14,28,24,22,-5,-11
-12,-18,-7,15,-1,-13,14,28,24,23,-4,-11
-11,-18,-7,14,-1,-13,15,29,25,23,-4,-11
-11,-17,-7,14,0,-13,15,30,25,24,-3,-11
-10,-17,-7,14,0,-13,15,30,25,24,-3,-11
-10,-16,-7,13,0,-12,15,30,25,24,-3,-11
-9,-16,-7,13,0,-12,15,30,26,24,-3,-11
-9,-16,-7,12,0,-12,16,31,26,24,-3,-11
-8,-15,-7,12,0,-11,16,31,26,24,-3,-11
-8,-15,-7,11,0,-11,16,31,27,25,-3,-11
-8,-14,-7,11,0,-11,16,32,27,25,-2,-11
-8,-14,-7,11,1,-11,16,32,28,25,-2,-11
-8,-14,-7,11,1,-11,16,33,28,25,-2,-11
-7,-14,-8,11,1,-11,16,33,29,26,-2,-11
-7,-13,-8,10,1,-11,16,33,29,26,-1,-11
-6,-13,-8,10,1,-11,16,34,29,27,-1,-10
-6,-13,-8,9,1,-11,17,34,30,27,0,-10
-5,-12,-8,9,1,-10,17,35,30,27,0,-10
-4,-12,-8,8,1,-10,17,35,31,27,0,-10
-4,-11,-8,8,1,-9,18,36,31,27,0,-10
-3,-10,-7,7,2,-9,18,36,31,28,0,-10
-3,-9,-7,7,2,-8,18,37,32,28,1,-10
-3,-9,-6,6,2,-8,18,37,32,29,1,-10
-3,-9,-6,6,2,-8,18,37,32,29,1,-10
-3,-9,-6,6,2,-8,18,37,32,29,1,-11
-3,-9,-6,6,2,-8,18,38,32,29,2,-11
-3,-10,-6,6,2,-8,18,38,33,29,2,-11
-2,-9,-7,6,2,-8,19,39,34,30,2,-11
-2,-9,-7,5,3,-8,19,39,35,30,2,-11
-1,-8,-7,5,3,-8,19,40,36,31,2,-11
-1,-8,-7,5,3,-8,19,40,36,31,3,-11
-1,-8,-7,5,3,-8,19,41,37,32,3,-11
0,-8,-7,5,3,-8,19,41,37,32,4,-11
-1,-8,-7,5,3,-8,19,42,38,33,4,-11
-2,-8,-7,5,2,-8,19,42,38,33,4,-12
-2,-8,-6,6,2,-8,19,43,39,34,4,-12
-2,-8,-6,6,2,-8,19,44,40,34,5,-12
-2,-8,-6,6,2,-8,19,45,41,34,5,-12
-2,-8,-6,5,3,-8,19,46,42,35,6,-12
-1,-8,-6,5,3,-8,20,46,43,36,7,-12
-1,-8,-7,5,3,-8,20,47,44,37,8,-12
-1,-8,-7,5,3,-8,20,48,44,38,8,-12
-1,-7,-7,4,3,-8,21,48,45,38,9,-12
0,-7,-7,4,4,-8,21,49,46,39,9,-12
0,-6,-7,3,4,-8,22,50,47,39,9,-12
0,-6,-7,3,4,-8,22,51,48,40,9,-12
0,-7,-7,4,4,-8,22,52,49,40,9,-12
0,-7,-7,4,4,-8,22,53,50,41,10,-12
0,-7,-8,4,4,-8,22,54,51,42,11,-12
0,-7,-8,4,4,-8,22,55,52,43,12,-13
-1,-7,-8,4,3,-8,22,56,53,44,13,-13
-1,-7,-8,4,3,-8,23,57,54,45,13,-13
0,-7,-8,4,4,-8,23,58,55,45,13,-13
0,-7,-8,4,4,-8,24,59,56,46,13,-13
0,-6,-8,3,4,-8,24,60,57,47,14,-13
1,-6,-8,3,4,-8,25,62,58,48,14,-13
1,-7,-8,3,4,-8,25,63,59,49,15,-13
1,-7,-8,3,4,-8,25,64,60,50,16,-13
1,-6,-8,3,4,-8,25,65,61,51,17,-13
1,-6,-9,2,5,-8,25,66,63,52,18,-13
2,-6,-9,2,5,-8,25,67,64,53,18,-13
2,-6,-9,2,6,-8,26,68,66,54,19,-13
2,-6,-10,2,6,-8,26,69,67,55,20,-13
3,-6,-10,2,6,-8,26,70,68,56,21,-13
3,-6,-10,1,6,-8,26,71,69,57,21,-13
4,-6,-10,1,6,-8,26,72,70,58,22,-13
4,-6,-10,1,7,-8,26,73,71,59,22,-13
4,-5,-10,0,7,-8,26,74,72,60,23,-13
5,-5,-10,0,8,-8,26,75,73,61,24,-13
5,-5,-11,0,8,-8,26,75,74,62,25,-13
5,-5,-11,0,8,-9,26,76,75,62,26,-13
5,-5,-12,0,9,-9,27,77,76,63,27,-13
6,-5,-12,0,9,-9,27,78,77,64,28,-12
6,-5,-13,0,9,-9,27,78,77,65,29,-12
7,-5,-13,0,9,-9,27,79,78,66,29,-11
7,-5,-14,0,10,-9,27,79,79,67,30,-11
8,-5,-14,-1,10,-9,27,79,80,67,31,-10
8,-5,-14,-1,11,-9,27,79,80,68,32,-10
8,-5,-14,-1,11,-9,27,80,81,68,33,-9
8,-5,-14,-1,11,-9,27,80,81,69,34,-9
9,-5,-14,-1,11,-9,26,80,81,69,34,-8
9,-5,-14,-1,11,-9,26,79,81,69,35,-8
9,-5,-15,-1,11,-9,26,79,81,70,35,-7
9,-4,-15,-2,12,-10,25,78,80,70,36,-6
10,-4,-15,-2,12,-10,25,78,80,70,37,-6
11,-4,-15,-3,13,-10,24,77,79,70,38,-5
11,-4,-15,-3,13,-10,24,75,77,69,38,-5
12,-3,-15,-3,14,-9,23,74,76,69,39,-5
12,-2,-15,-4,14,-9,23,73,75,68,39,-4
12,-2,-15,-4,14,-9,22,72,74,67,39,-4
12,-1,-15,-4,13,-9,21,70,72,66,40,-3
12,-1,-15,-4,13,-9,20,69,70,65,40,-2
12,-1,-15,-5,13,-8,20,67,68,63,40,-1
13,-1,-15,-5,13,-8,19,65,66,62,41,0
13,0,-14,-6,14,-7,18,63,64,61,41,1
13,0,-14,-6,14,-7,17,60,61,60,41,2
13,0,-14,-6,13,-7,16,58,59,58,40,2
13,0,-13,-6,13,-7,15,55,56,56,40,2
13,1,-13,-6,13,-6,15,53,54,54,39,2
13,2,-12,-7,12,-6,14,51,51,52,38,2
13,2,-11,-7,12,-5,14,49,49,49,37,3
12,2,-11,-6,11,-5,13,46,46,46,35,3
11,1,-10,-5,11,-5,12,43,43,44,33,3
10,1,-10,-5,10,-5,11,41,40,42,32,3
10,2,-9,-6,10,-4,10,38,38,40,31,3
10,2,-9,-6,9,-3,9,36,35,37,29,3
10,3,-8,-6,9,-3,8,34,32,35,28,2
9,3,-7,-5,8,-2,8,32,30,32,27,2
9,3,-6,-5,7,-2,7,30,27,29,25,2
8,3,-5,-6,7,-1,7,28,25,27,23,2
8,3,-4,-6,6,-1,6,26,22,24,21,1
7,3,-4,-5,6,-1,6,24,20,22,19,1
7,3,-4,-5,6,-1,6,22,18,20,18,0
6,3,-3,-4,5,0,6,21,16,18,17,0
5,2,-3,-4,5,0,5,19,14,16,15,-1
4,2,-3,-3,4,0,5,18,13,14,14,-2
4,2,-3,-2,4,0,4,17,11,12,12,-3
3,1,-2,-2,3,-1,4,16,10,10,10,-4
2,0,-2,-2,3,-1,4,15,8,9,8,-4
2,0,-2,-2,2,-1,4,14,7,7,7,-5
2,0,-2,-2,2,-1,4,14,7,6,6,-6
2,0,-2,-1,2,-1,4,13,6,5,5,-7
1,0,-2,-1,2,-1,4,12,5,4,4,-8
1,0,-2,-1,2,-1,4,12,4,3,3,-8
1,0,-2,-1,2,-1,4,11,4,2,2,-9
1,0,-2,-1,2,-1,4,11,3,1,1,-9
1,0,-2,-1,2,-1,4,11,3,0,0,-9
1,0,-2,-1,2,-1,4,10,2,0,0,-10
1,-1,-2,0,2,-1,4,10,2,-1,-1,-11
0,-1,-2,0,1,-1,5,10,2,-1,-1,-12
0,-1,-2,0,1,-1,5,10,2,-1,-2,-12
0,-1,-2,0,1,-1,5,10,2,-2,-2,-13
0,-1,-2,0,1,-2,5,10,2,-2,-3,-13
0,-1,-2,1,1,-2,5,10,2,-3,-3,-13
0,-2,-2,1,1,-2,5,10,2,-3,-3,-13
0,-2,-2,1,1,-3,5,10,2,-3,-3,-13
0,-3,-3,1,1,-3,5,10,2,-3,-3,-14
0,-3,-3,1,1,-3,6,10,2,-3,-3,-14
0,-3,-4,1,2,-3,6,10,2,-3,-3,-14
0,-3,-4,1,2,-3,6,10,2,-3,-3,-14
0,-3,-4,1,2,-4,6,10,2,-3,-4,-15
0,-3,-4,1,2,-4,6,10,2,-3,-4,-15
0,-2,-4,0,2,-4,7,10,2,-3,-4,-15
0,-2,-4,0,2,-3,7,10,3,-3,-4,-15
0,-3,-3,1,2,-3,7,10,3,-3,-4,-16
0,-3,-3,1,2,-3,7,10,3,-3,-5,-16
0,-3,-3,1,2,-3,7,10,3,-3,-5,-16
0,-3,-3,1,2,-3,7,10,3,-3,-5,-16
0,-3,-3,1,1,-3,7,10,3,-3,-5,-17
0,-3,-3,1,1,-3,7,10,3,-3,-5,-17
-1,-3,-3,2,1,-3,7,10,3,-3,-5,-17
-1,-3,-3,2,1,-3,7,10,3,-3,-5,-17
-1,-3,-3,2,2,-3,7,10,4,-2,-5,-17
-1,-3,-3,2,2,-3,7,10,4,-2,-4,-17
-1,-3,-3,2,2,-3,8,10,4,-2,-4,-17
-1,-3,-3,2,2,-3,8,10,4,-2,-4,-17
0,-3,-3,1,2,-3,8,10,4,-2,-4,-17
-1,-3,-3,2,1,-4,8,10,4,-2,-4,-17
-1,-4,-3,2,1,-4,8,10,4,-2,-4,-17
-2,-4,-3,2,1,-3,8,10,4,-2,-3,-17
-2,-3,-3,2,1,-3,8,11,4,-2,-3,-17
-2,-3,-2,2,1,-3,8,11,4,-2,-3,-17
-2,-3,-2,2,0,-3,8,11,4,-2,-3,-17
-2,-4,-2,3,0,-3,8,11,4,-2,-3,-17
-2,-4,-2,3,0,-3,8,11,4,-1,-3,-17
-2,-4,-2,3,0,-3,8,11,4,-1,-2,-17
-2,-4,-2,2,0,-3,9,11,5,-1,-2,-17
-1,-3,-2,2,0,-2,9,11,5,-1,-1,-17
-1,-3,-2,2,0,-2,9,11,5,-1,-1,-17
-1,-3,-2,2,0,-3,9,11,5,-1,-1,-17
-1,-3,-2,2,0,-3,8,11,5,-1,-1,-17
-1,-4,-2,2,0,-3,8,11,5,-1,-1,-17
-1,-4,-2,2,0,-3,8,11,5,0,-1,-17
-1,-4,-2,2,0,-3,8,11,6,0,-1,-16
-1,-3,-2,2,0,-2,8,11,6,0,0,-16
-2,-3,-1,2,0,-2,8,12,7,0,0,-16
-2,-3,-1,2,0,-2,9,12,7,0,0,-16
-2,-2,0,2,-1,-1,9,13,7,0,0,-16
-2,-1,0,1,-1,0,9,13,8,1,0,-15
-1,0,0,0,-1,0,9,13,8,1,1,-15
-1,0,1,0,-1,0,9,13,8,2,1,-15
-1,0,1,0,-1,0,9,13,8,2,1,-14
-1,0,1,0,-1,0,8,13,9,2,1,-14
-1,0,2,0,-1,1,8,13,9,2,1,-13
-1,1,2,0,-1,1,7,13,9,2,2,-13
-1,2,2,-1,-1,2,7,13,9,3,2,-12
0,3,3,-2,-1,3,7,13,10,3,2,-12
0,4,4,-2,-1,4,6,12,10,3,2,-12
0,4,4,-2,-1,4,5,12,10,3,2,-12
0,4,4,-2,-2,4,4,11,9,3,2,-12
0,4,4,-2,-1,4,3,10,9,3,2,-12
1,4,4,-2,0,4,3,10,9,3,2,-12
1,5,4,-3,0,4,2,10,8,3,2,-12
1,5,4,-3,0,4,2,9,8,2,2,-12
1,5,3,-3,0,4,1,9,7,2,2,-12
1,5,3,-3,0,4,1,8,7,1,2,-12
1,5,3,-3,0,4,1,8,6,1,2,-12
1,5,3,-3,0,4,0,7,6,1,2,-12
1,5,3,-3,0,4,0,7,5,1,1,-11
1,5,3,-3,0,4,0,6,5,0,1,-11
1,5,3,-3,0,4,0,6,5,0,1,-11
1,5,3,-3,0,4,0,6,5,0,1,-11
1,5,3,-3,0,3,0,6,5,0,1,-11
1,4,2,-3,0,3,0,6,5,0,1,-11
1,4,2,-3,0,3,0,6,5,0,1,-11
2,3,1,-3,1,3,0,6,5,0,1,-11
3,3,0,-3,2,2,1,7,5,0,1,-10
3,2,-1,-3,3,1,1,7,5,0,1,-10
3,2,-2,-2,3,0,1,7,5,0,1,-10
4,2,-2,-2,4,-1,1,7,5,0,1,-10
5,2,-3,-2,4,-1,1,7,5,0,1,-10
6,1,-4,-3,5,-1,1,7,5,0,1,-10
6,1,-5,-3,6,-1,1,7,5,0,1,-9
7,1,-5,-4,6,-1,2,7,5,0,1,-9
6,1,-5,-4,6,-1,2,7,5,0,1,-9
5,1,-5,-3,6,-1,3,8,5,0,0,-9
4,1,-4,-2,5,-1,4,8,5,0,0,-10
3,1,-4,-2,4,-1,5,8,6,0,0,-10
2,0,-3,-1,3,-1,7,9,6,0,0,-10
2,0,-3,-1,3,-1,8,9,6,0,0,-11
1,-1,-3,0,2,-1,9,9,6,-1,-1,-12
0,-1,-3,0,2,-1,10,9,6,-1,-1,-12
0,-2,-2,1,1,-1,10,9,6,-1,-2,-13
0,-2,-2,1,1,-2,10,9,6,-1,-2,-14
0,-3,-2,2,1,-2,10,9,6,-1,-3,-14
0,-3,-2,2,1,-2,10,9,6,-2,-3,-14
0,-2,-2,1,1,-2,10,9,6,-2,-3,-14
0,-2,-2,1,1,-2,10,9,6,-2,-3,-14
0,-2,-2,1,1,-2,10,9,6,-2,-3,-14
0,-2,-2,1,1,-2,10,9,6,-2,-3,-14
0,-2,-2,1,2,-2,11,9,6,-1,-3,-14
1,-1,-2,0,2,-2,11,9,6,-1,-3,-15
1,-1,-2,0,2,-2,11,9,6,-1,-3,-15
1,-1,-2,0,2,-2,11,9,6,-1,-3,-15
1,-1,-2,0,2,-2,11,9,6,-1,-3,-15
1,-1,-2,0,2,-2,11,9,6,-1,-3,-15
1,-1,-2,0,2,-2,11,9,6,-1,-3,-15
1,-1,-2,0,2,-2,10,9,6,-1,-3,-15
1,-1,-2,1,2,-2,10,9,6,-1,-3,-15
1,-1,-2,1,2,-2,10,9,6,-1,-3,-15
1,-1,-3,0,2,-2,10,10,6,-1,-3,-15
2,-1,-3,0,2,-2,11,10,6,-1,-3,-15
2,-1,-3,-1,3,-2,11,10,6,-1,-3,-15
2,-1,-3,0,3,-2,11,10,6,-1,-3,-15
1,-2,-3,0,3,-2,11,10,6,-1,-3,-15
1,-2,-3,0,3,-2,11,10,6,-1,-2,-14
1,-2,-4,0,3,-3,11,10,6,-1,-2,-14
1,-3,-4,0,3,-3,11,10,6,-1,-2,-14
1,-3,-4,0,3,-3,11,11,7,-1,-2,-14
2,-2,-5,0,4,-3,12,13,9,0,-1,-14
3,-2,-5,-1,5,-3,13,18,13,2,0,-13
4,-1,-6,-2,5,-3,13,23,18,5,2,-12
5,-1,-7,-2,6,-3,13,28,23,8,4,-11
6,0,-7,-3,7,-3,13,30,25,11,6,-10
7,0,-8,-3,7,-3,12,30,26,13,7,-8
8,1,-7,-4,8,-2,12,26,24,15,9,-7
7,3,-5,-5,7,-1,11,18,18,15,10,-6
5,4,-1,-5,4,1,10,2,5,11,10,-5
2,7,4,-5,0,5,10,-17,-13,5,9,-5
0,10,10,-5,-4,9,9,-37,-33,-3,8,-4
-2,13,15,-5,-8,14,9,-54,-51,-12,6,-3
-4,16,20,-6,-11,18,7,-72,-70,-22,5,-2
-6,19,25,-6,-15,22,2,-93,-91,-33,3,-1
-8,22,30,-6,-18,26,-4,-115,-112,-45,1,1
-8,25,33,-7,-20,29,-13,-137,-133,-58,0,4
-8,28,35,-9,-21,31,-23,-158,-153,-68,0,9
-6,30,36,-11,-21,33,-34,-176,-170,-78,1,15
-5,33,37,-13,-21,35,-44,-191,-184,-88,2,20
-3,36,38,-16,-20,37,-52,-202,-196,-98,2,25
-1,39,40,-18,-20,39,-59,-209,-205,-108,2,30
0,42,41,-20,-20,42,-65,-215,-213,-117,2,34
2,44,41,-22,-19,43,-70,-219,-219,-126,1,38
3,45,42,-23,-19,44,-74,-223,-225,-134,0,42
3,45,42,-23,-19,44,-77,-226,-229,-142,-3,44
2,45,42,-23,-19,43,-79,-228,-231,-149,-7,45
1,44,43,-22,-20,43,-81,-230,-233,-155,-13,45
0,45,44,-22,-22,44,-83,-232,-236,-162,-19,44
-1,46,47,-22,-24,46,-85,-234,-238,-169,-27,43
-3,47,50,-21,-26,48,-86,-235,-241,-176,-35,42
-4,49,53,-21,-29,51,-87,-234,-242,-183,-43,40
-6,52,57,-22,-31,54,-88,-232,-242,-188,-50,38
-7,54,61,-22,-33,57,-88,-228,-240,-192,-58,35
-8,55,63,-22,-35,59,-88,-223,-236,-193,-65,33
-9,56,65,-22,-36,60,-87,-216,-230,-192,-70,32
-10,56,66,-22,-37,61,-86,-207,-221,-188,-73,31
-10,56,65,-22,-37,60,-83,-195,-210,-182,-74,32
-10,55,64,-22,-36,59,-78,-182,-197,-174,-72,33
-10,53,62,-21,-35,57,-73,-169,-183,-164,-69,34
-9,49,57,-19,-33,53,-67,-155,-169,-154,-65,36
-8,44,51,-17,-29,48,-62,-142,-156,-144,-60,38
-7,39,45,-15,-25,42,-57,-130,-143,-134,-55,41
-5,33,38,-14,-20,35,-52,-118,-131,-125,-50,43
-3,27,30,-12,-15,28,-48,-106,-119,-115,-45,46
-1,21,21,-10,-10,21,-43,-95,-107,-106,-39,49
0,14,12,-8,-5,13,-37,-83,-96,-96,-33,51
1,5,2,-4,0,4,-32,-72,-84,-88,-28,53
3,-3,-8,0,6,-5,-27,-61,-74,-80,-23,54
5,-11,-18,3,12,-14,-22,-51,-65,-72,-19,54
6,-18,-26,6,17,-22,-17,-43,-57,-65,-15,54
7,-23,-32,8,20,-27,-13,-36,-49,-59,-12,53
8,-26,-35,9,22,-31,-10,-30,-42,-52,-10,51
8,-28,-37,10,23,-33,-7,-24,-35,-46,-7,49
8,-28,-37,11,23,-33,-4,-17,-28,-40,-4,44
7,-28,-36,11,22,-32,-1,-11,-22,-34,-3,39
6,-26,-34,11,21,-30,2,-6,-16,-28,-2,33
5,-24,-30,10,18,-27,4,-1,-10,-22,-1,27
4,-20,-26,8,16,-23,6,3,-4,-16,0,22
4,-16,-20,7,13,-18,7,7,1,-10,1,17
3,-12,-15,4,10,-14,9,11,6,-4,2,12
3,-9,-12,3,9,-10,10,14,11,0,2,7
2,-7,-10,2,7,-8,11,17,15,2,2,3
2,-6,-9,1,6,-7,12,19,18,4,2,-1
2,-5,-8,1,5,-6,14,22,21,6,1,-5
1,-5,-7,2,4,-6,15,24,22,8,1,-8
0,-5,-6,2,4,-5,16,26,24,9,1,-10
0,-5,-6,2,3,-5,16,27,25,10,1,-11
0,-5,-5,2,3,-5,16,27,25,11,0,-12
-1,-5,-5,3,2,-5,16,27,25,11,0,-13
0,-4,-4,2,2,-5,16,28,26,12,0,-13
0,-4,-4,2,2,-5,16,28,26,12,0,-14
-1,-5,-4,3,2,-5,16,28,26,12,0,-14
-1,-5,-4,3,2,-5,17,29,26,12,0,-15
-1,-4,-4,3,2,-5,17,29,26,13,0,-15
-1,-4,-4,3,2,-4,17,29,27,13,0,-15
-1,-4,-4,3,2,-4,17,29,27,13,0,-15
-1,-4,-4,3,2,-4,17,29,27,13,0,-16
-1,-4,-4,2,2,-4,17,29,27,13,0,-16
0,-4,-4,2,2,-4,17,29,27,13,0,-16
0,-4,-4,2,2,-4,17,29,28,13,0,-16
0,-4,-4,2,2,-4,17,29,28,14,0,-16
0,-4,-4,2,2,-4,17,29,28,14,0,-16
0,-4,-4,2,2,-4,17,29,28,15,0,-16
0,-4,-4,2,2,-4,17,29,28,15,0,-16
0,-3,-4,2,2,-4,17,29,28,15,0,-16
0,-3,-4,1,2,-4,17,29,29,15,0,-16
0,-2,-4,1,2,-4,17,29,29,15,0,-16
0,-2,-4,1,2,-4,17,29,29,15,0,-16
0,-2,-4,1,2,-3,17,29,29,15,0,-16
1,-2,-4,1,2,-3,17,30,29,16,0,-15
1,-1,-4,0,2,-3,17,30,29,16,1,-15
1,-1,-4,0,2,-2,17,30,30,17,1,-15
1,-1,-3,0,2,-2,17,31,30,17,1,-15
1,-1,-3,0,2,-2,17,31,30,17,1,-15
2,-1,-3,-1,2,-2,17,31,31,17,1,-15
2,0,-3,-1,3,-2,17,32,31,18,1,-15
3,0,-3,-1,3,-2,18,32,32,18,1,-15
3,0,-3,-1,3,-2,18,33,32,19,1,-15
2,-1,-3,-1,3,-2,18,33,32,19,1,-15
2,-1,-3,-1,3,-2,17,34,32,19,1,-15
2,-1,-3,-1,3,-2,17,34,32,19,1,-15
3,0,-3,-1,3,-2,17,35,33,19,2,-15
3,0,-3,-2,3,-2,18,35,33,20,2,-14
3,0,-3,-2,3,-2,18,36,34,20,2,-14
3,0,-3,-1,3,-2,18,36,34,20,2,-14
3,0,-3,-1,3,-2,18,37,35,21,2,-14
3,0,-3,-2,3,-2,18,37,35,21,3,-14
4,0,-3,-2,3,-2,19,38,36,22,3,-14
4,1,-3,-2,3,-2,19,38,36,22,3,-14
4,1,-3,-2,3,-2,19,39,37,23,4,-14
4,1,-3,-2,3,-2,20,39,37,23,4,-14
4,1,-3,-3,4,-1,20,40,38,24,4,-14
5,1,-3,-3,4,-1,20,40,39,24,5,-14
4,1,-3,-2,4,-2,20,41,40,25,5,-14
4,1,-3,-2,4,-2,20,41,40,25,5,-14
5,1,-3,-3,4,-2,20,42,41,26,5,-14
5,1,-4,-3,4,-2,20,43,42,27,5,-14
5,2,-4,-4,4,-2,20,44,43,28,6,-14
5,2,-4,-4,4,-1,21,45,44,28,6,-14
5,2,-4,-4,4,-1,21,45,45,29,6,-14
5,2,-4,-4,4,-1,21,46,46,30,7,-14
6,1,-4,-4,5,-1,21,47,47,30,7,-14
6,1,-4,-3,5,-1,21,48,48,31,8,-14
6,1,-4,-3,5,-1,22,49,49,32,8,-14
6,1,-4,-4,6,-1,22,50,50,33,8,-14
6,1,-4,-4,5,-1,22,51,51,33,8,-14
5,1,-4,-3,5,-1,22,52,52,34,8,-14
5,1,-4,-3,5,-1,22,53,53,35,9,-14
6,1,-4,-3,5,-1,23,54,54,36,10,-14
6,1,-4,-3,5,-1,23,56,55,37,11,-14
7,1,-4,-3,5,-1,24,57,56,38,11,-14
7,1,-5,-4,6,-1,24,58,57,39,12,-14
7,1,-5,-4,6,-1,24,59,58,40,12,-14
7,1,-5,-4,6,-1,25,60,59,41,12,-14
7,2,-5,-5,6,-1,25,61,61,42,13,-14
7,2,-5,-5,6,-1,25,62,62,43,13,-14
7,2,-5,-5,6,-1,25,63,63,43,14,-14
8,2,-5,-5,6,-1,25,64,64,44,14,-14
8,2,-5,-5,7,-1,26,65,66,45,15,-13
9,3,-5,-6,7,-1,26,66,67,46,16,-13
9,3,-5,-6,8,-1,26,67,68,47,16,-13
9,2,-6,-6,8,-2,26,68,70,48,17,-13
9,2,-6,-6,8,-2,27,69,71,49,17,-13
9,2,-6,-6,8,-2,27,70,72,50,18,-13
10,3,-7,-6,9,-2,27,70,73,51,18,-13
10,3,-7,-6,9,-2,27,71,74,52,19,-13
11,3,-8,-6,9,-2,27,71,75,53,20,-13
11,3,-8,-7,10,-2,27,72,76,54,21,-12
11,3,-9,-7,10,-2,28,72,77,55,22,-12
12,3,-9,-7,11,-2,28,73,78,56,22,-12
12,3,-9,-7,11,-2,28,73,79,57,23,-11
12,3,-9,-8,11,-2,28,74,80,58,23,-11
13,3,-9,-8,11,-3,28,75,80,59,24,-11
13,3,-10,-8,11,-3,28,76,81,59,24,-10
13,3,-10,-8,11,-3,28,76,81,60,25,-10
13,3,-10,-8,12,-3,28,77,82,61,26,-10
13,3,-10,-8,12,-3,28,77,82,62,27,-9
13,2,-10,-8,12,-3,27,77,82,62,27,-9
13,2,-11,-8,12,-3,27,77,82,63,28,-8
14,3,-11,-8,13,-3,27,77,82,63,29,-8
15,4,-11,-9,14,-3,27,77,82,64,29,-7
16,4,-11,-10,15,-3,27,77,82,64,30,-6
16,5,-11,-10,15,-3,26,76,82,64,31,-5
16,5,-12,-10,15,-3,26,75,81,64,32,-5
16,5,-12,-10,15,-3,25,74,80,64,32,-4
17,5,-12,-11,15,-3,24,73,79,64,33,-4
17,5,-12,-11,15,-3,23,72,78,64,33,-3
17,4,-12,-11,15,-3,22,70,77,63,34,-2
17,4,-13,-11,15,-3,21,69,75,62,34,-1
17,4,-13,-11,15,-3,21,67,74,61,34,-1
17,5,-13,-11,16,-3,20,65,72,60,34,0
18,6,-13,-11,16,-3,20,64,70,60,35,0
18,6,-13,-12,16,-2,19,62,68,59,35,1
18,6,-13,-12,16,-2,18,59,66,58,35,2
19,6,-12,-12,15,-2,18,57,64,56,35,2
19,7,-11,-12,15,-1,17,55,62,55,35,3
19,7,-11,-13,15,-1,17,52,60,53,35,4
19,8,-10,-13,15,0,16,49,57,51,34,5
19,8,-10,-13,15,0,15,46,55,49,34,5
19,9,-9,-13,14,0,13,43,52,47,33,6
18,10,-8,-14,14,1,12,40,50,45,32,6
18,11,-8,-14,13,2,11,38,47,43,31,7
17,11,-7,-14,13,2,10,35,44,40,30,7
17,11,-6,-14,12,3,9,32,41,38,29,8
16,11,-5,-14,12,3,9,29,38,35,27,8
16,12,-5,-14,11,4,8,27,36,33,26,8
16,13,-4,-14,11,4,8,25,33,31,24,8
16,13,-4,-14,10,5,7,23,31,29,23,8
15,13,-3,-13,10,5,6,21,29,27,21,8
15,13,-2,-13,9,5,6,20,26,25,20,7
15,13,-1,-13,9,6,5,18,24,23,18,7
14,13,-1,-13,8,7,5,17,22,20,17,6
14,13,0,-13,8,7,5,15,20,18,15,6
13,13,0,-13,7,7,4,14,18,16,13,5
13,13,0,-13,7,7,4,13,17,14,12,5
12,13,1,-12,6,7,4,12,15,12,10,4
11,13,1,-12,6,7,3,11,14,11,9,3
10,12,1,-11,5,7,3,10,12,9,7,2
10,12,1,-11,5,7,3,9,11,8,6,2
10,12,1,-11,5,7,3,8,10,7,5,1
10,12,1,-11,5,7,3,7,10,6,4,1
10,11,1,-10,5,6,3,7,9,5,3,0
9,10,1,-9,5,6,3,6,8,4,2,0
9,10,1,-9,4,5,3,6,7,3,1,-1
8,9,1,-9,4,5,3,6,7,2,0,-1
8,9,1,-9,4,5,3,6,6,1,0,-2
8,9,1,-9,4,5,3,6,6,1,-1,-2
8,9,1,-9,4,5,3,6,6,0,-1,-2
7,9,1,-8,4,5,3,5,6,0,-2,-3
7,9,1,-8,4,5,3,5,5,0,-3,-3
7,9,1,-8,4,5,3,5,5,-1,-4,-4
7,9,1,-8,4,5,3,5,4,-1,-4,-5
7,8,1,-8,4,5,3,5,4,-1,-5,-5
7,8,1,-8,4,5,3,5,4,-1,-5,-6
6,7,1,-7,4,5,3,5,4,-2,-5,-6
6,7,1,-6,4,4,3,5,4,-2,-5,-6
6,6,1,-6,4,4,4,5,4,-2,-6,-6
6,6,1,-6,4,4,4,5,4,-2,-6,-7
6,6,0,-6,4,4,4,5,4,-2,-6,-7
6,6,0,-6,3,4,4,5,4,-3,-6,-7
6,6,0,-6,3,4,4,5,4,-3,-6,-7
6,6,0,-6,3,4,5,5,4,-3,-6,-7
5,6,0,-6,3,4,5,5,4,-3,-6,-7
5,6,0,-6,3,4,5,5,4,-2,-6,-7
5,6,0,-6,3,4,5,5,4,-2,-6,-8
5,6,0,-6,3,4,5,5,5,-2,-6,-8
5,6,0,-6,3,4,5,5,5,-2,-6,-8
5,6,0,-6,3,4,5,6,5,-2,-6,-8
5,6,0,-6,3,4,6,6,6,-2,-6,-8
5,6,0,-6,3,3,6,6,6,-2,-6,-7
5,6,0,-5,3,3,6,6,6,-2,-6,-7
4,5,0,-4,3,2,5,6,6,-2,-7,-7
3,4,0,-4,3,2,5,6,6,-2,-7,-7
3,4,0,-4,3,2,5,6,6,-2,-7,-7
3,4,0,-4,2,2,5,6,6,-2,-7,-8
3,4,0,-4,2,2,5,6,6,-1,-7,-8
3,4,0,-3,2,2,5,6,6,-1,-7,-8
3,4,0,-3,2,2,5,6,6,-1,-7,-8
3,4,0,-4,2,2,5,6,6,-1,-7,-8
4,4,0,-4,2,2,6,7,6,-1,-6,-8
4,5,0,-5,2,2,6,7,6,0,-6,-8
4,5,0,-5,2,2,6,7,6,0,-6,-7
4,5,0,-5,2,2,6,7,6,0,-6,-7
4,5,0,-5,2,2,6,7,6,0,-6,-7
4,5,0,-5,2,2,6,7,6,0,-6,-7
4,4,0,-5,2,2,6,7,6,0,-6,-7
4,4,0,-5,2,2,6,7,6,0,-6,-7
4,4,0,-4,2,2,6,7,6,0,-6,-7
3,4,0,-4,2,2,6,7,6,0,-6,-7
3,4,0,-4,2,2,6,7,6,0,-5,-7
3,4,0,-4,2,2,6,7,6,0,-5,-7
3,4,0,-4,2,2,6,7,7,0,-5,-7
4,5,0,-5,2,3,6,7,7,0,-5,-7
4,6,1,-6,2,3,6,8,8,1,-4,-6
4,7,1,-6,2,4,6,8,8,1,-4,-6
4,7,1,-6,2,4,6,8,8,2,-3,-6
4,7,2,-6,2,5,6,8,8,2,-3,-6
4,7,2,-6,2,5,6,8,8,2,-3,-5
4,8,3,-7,2,6,6,9,9,2,-3,-5
4,9,3,-7,1,6,6,9,9,2,-3,-5
4,9,4,-7,1,7,6,9,9,2,-3,-5
5,10,4,-8,1,7,6,9,9,2,-3,-5
5,10,4,-8,1,7,6,9,9,3,-3,-5
5,10,4,-8,1,8,5,9,9,3,-2,-4
5,10,5,-8,0,8,4,9,9,3,-2,-4
5,10,5,-8,0,8,3,9,9,3,-2,-4
5,11,5,-8,0,9,3,9,9,4,-1,-3
5,11,6,-8,0,9,2,9,9,4,-1,-3
5,12,6,-9,0,10,2,8,9,4,-1,-2
6,12,6,-9,0,10,1,8,9,4,-1,-2
7,13,6,-10,0,10,1,7,9,4,-1,-2
7,13,5,-10,0,10,0,7,9,4,-1,-2
7,13,5,-9,0,10,-1,6,8,4,-1,-2
7,13,5,-9,1,10,-2,6,8,4,-1,-2
7,13,5,-9,1,9,-2,5,7,3,-1,-2
7,13,5,-9,1,9,-3,5,7,3,-2,-2
6,12,5,-9,1,9,-3,4,6,2,-2,-2
6,12,5,-9,1,8,-3,3,5,1,-3,-2
6,12,5,-9,1,8,-3,2,5,1,-3,-2
7,12,5,-10,1,9,-3,2,5,1,-3,-2
8,13,5,-10,2,9,-3,2,5,1,-3,-2
8,13,5,-10,2,9,-3,2,4,1,-3,-2
8,13,5,-10,2,9,-3,2,4,0,-3,-2
8,13,5,-10,2,9,-2,2,4,0,-3,-2
8,13,5,-10,2,9,-2,2,4,0,-3,-1
8,13,4,-10,3,8,-1,2,4,0,-3,-1
9,12,3,-10,3,7,-1,2,4,0,-3,0
9,12,2,-10,4,6,-1,2,4,0,-3,0
10,11,1,-10,5,6,-1,2,4,0,-3,0
10,11,0,-10,5,5,-1,2,4,0,-3,0
11,10,-1,-10,6,5,-1,2,4,0,-3,0
11,10,-1,-11,7,4,0,3,4,0,-3,0
12,10,-2,-11,7,4,0,3,5,0,-3,0
12,10,-2,-11,7,4,0,3,5,0,-3,0
11,9,-1,-10,6,4,0,3,5,0,-4,0
10,9,-1,-9,5,4,1,3,5,0,-4,-1
8,9,0,-9,4,4,2,4,5,0,-4,-1
7,9,0,-8,3,4,3,4,5,0,-5,-2
6,8,1,-7,2,4,4,4,5,0,-5,-2
5,7,1,-6,1,4,5,4,5,0,-6,-3
3,5,1,-4,0,4,5,4,5,0,-6,-3
3,4,1,-3,0,4,6,5,5,-1,-7,-4
2,4,1,-3,0,3,6,5,5,-1,-7,-4
2,3,1,-2,0,3,6,5,5,-1,-8,-5
2,3,1,-2,0,2,6,5,4,-2,-8,-5
2,3,1,-2,0,2,7,4,4,-2,-8,-5
2,3,1,-3,0,2,7,5,4,-2,-8,-5
2,4,1,-3,0,2,8,5,4,-2,-8,-5
2,4,1,-3,0,2,8,5,5,-1,-8,-5
2,4,1,-3,0,2,8,5,5,-1,-9,-5
2,3,1,-2,0,2,7,5,5,-1,-9,-5
2,3,1,-2,0,2,7,5,5,-1,-9,-5
2,3,1,-2,0,2,7,5,5,-1,-9,-6
2,3,1,-2,0,2,7,5,5,-1,-9,-6
2,3,1,-2,0,2,7,5,5,-2,-9,-6
3,3,0,-3,1,2,7,5,5,-2,-9,-6
3,4,0,-3,1,2,8,5,5,-2,-9,-6
3,4,0,-3,1,2,8,5,5,-2,-9,-6
4,4,0,-4,1,2,8,5,5,-2,-9,-6
4,4,0,-4,2,2,8,5,5,-2,-9,-6
4,4,0,-5,2,2,8,5,5,-2,-9,-6
4,4,0,-4,2,2,8,5,5,-2,-9,-6
3,3,0,-4,1,2,8,5,5,-2,-9,-6
3,3,0,-4,1,2,8,6,5,-2,-9,-6
3,3,0,-4,1,2,8,6,5,-2,-9,-6
3,3,0,-4,1,2,8,5,5,-2,-9,-6
3,4,0,-4,1,2,8,5,5,-2,-9,-6
4,4,0,-4,1,2,8,5,5,-1,-8,-6
4,4,0,-4,2,2,8,7,6,-1,-8,-6
4,4,0,-4,2,2,8,10,9,0,-7,-5
5,5,0,-5,2,2,9,16,13,3,-6,-5
6,5,-1,-5,3,2,10,22,18,6,-4,-4
8,6,-2,-6,4,2,11,26,22,8,-2,-3
9,6,-3,-7,5,2,11,28,24,10,0,-2
10,7,-3,-8,6,2,10,26,24,12,1,-1
11,9,-3,-9,6,3,9,21,22,13,3,0
11,11,0,-10,5,5,8,9,14,12,4,1
8,12,4,-10,2,8,7,-9,0,8,3,2
4,14,10,-9,-2,12,7,-30,-20,1,2,2
1,16,14,-8,-6,15,6,-50,-40,-7,0,2
-1,18,19,-8,-10,18,5,-70,-59,-16,-2,3
-3,20,24,-8,-14,22,1,-90,-79,-26,-4,4
-5,24,29,-9,-17,26,-4,-112,-99,-37,-5,5
-5,27,33,-10,-19,30,-12,-134,-120,-48,-7,8
-5,30,35,-11,-20,32,-23,-156,-140,-59,-7,12
-4,32,37,-13,-20,34,-34,-176,-157,-68,-6,17
-3,35,38,-15,-20,36,-45,-193,-173,-76,-5,22
-1,38,38,-17,-19,38,-54,-206,-186,-85,-5,27
1,41,39,-20,-19,40,-61,-214,-196,-93,-5,32
3,44,40,-23,-18,42,-67,-220,-203,-101,-5,37
5,46,40,-25,-18,43,-72,-225,-210,-109,-5,40
6,47,40,-26,-17,44,-77,-229,-216,-118,-6,43
6,48,40,-26,-17,44,-81,-233,-221,-126,-8,46
6,47,40,-25,-17,44,-83,-235,-225,-133,-11,47
5,46,40,-25,-17,44,-85,-236,-228,-140,-16,48
4,46,41,-24,-18,44,-87,-238,-231,-147,-21,48
3,47,44,-24,-20,46,-89,-240,-234,-154,-27,47
2,49,46,-24,-22,48,-90,-242,-238,-161,-34,46
1,51,49,-25,-24,50,-91,-243,-240,-168,-40,45
0,53,53,-25,-27,53,-92,-242,-241,-174,-47,43
-2,56,57,-26,-30,56,-93,-239,-240,-179,-53,41
-3,58,60,-26,-31,59,-93,-235,-238,-182,-59,40
-4,59,63,-26,-33,61,-93,-229,-233,-182,-64,39
-5,60,64,-26,-34,62,-92,-221,-226,-180,-67,38
-5,60,65,-26,-35,62,-89,-211,-217,-176,-69,38
-6,59,64,-26,-35,62,-85,-198,-205,-169,-68,39
-6,58,63,-25,-35,60,-80,-185,-191,-160,-66,40
-6,55,61,-24,-34,58,-75,-171,-177,-151,-62,41
-5,52,56,-22,-32,54,-69,-158,-164,-141,-58,42
-4,47,51,-21,-28,49,-64,-145,-151,-132,-54,44
-2,43,45,-19,-24,44,-59,-133,-139,-123,-50,46
0,37,38,-18,-19,38,-54,-121,-128,-115,-46,49
1,32,30,-16,-14,31,-49,-109,-116,-107,-42,51
3,25,21,-14,-9,23,-44,-97,-105,-98,-37,54
5,18,12,-11,-4,15,-38,-85,-93,-89,-32,55
7,9,2,-8,1,6,-32,-74,-82,-81,-25,56
8,1,-8,-4,7,-3,-27,-64,-73,-74,-18,57
10,-6,-17,-1,13,-12,-23,-55,-64,-68,-12,57
11,-12,-24,1,18,-18,-19,-47,-56,-61,-7,57
12,-17,-30,3,21,-23,-15,-39,-49,-55,-3,56
12,-20,-33,4,22,-26,-12,-33,-42,-49,0,54
11,-22,-34,5,22,-28,-9,-27,-35,-43,3,52
11,-22,-34,6,22,-28,-6,-21,-28,-36,6,48
10,-21,-32,6,21,-27,-3,-15,-22,-31,7,42
9,-19,-29,5,19,-25,0,-10,-16,-26,8,36
8,-16,-25,4,16,-21,2,-5,-10,-20,10,31
8,-12,-20,3,14,-16,4,0,-4,-14,11,26
7,-7,-15,1,11,-11,5,4,1,-8,12,21
7,-3,-11,-1,9,-7,7,8,6,-3,13,17
6,0,-8,-2,7,-4,8,11,10,0,12,12
6,1,-6,-3,5,-2,9,14,14,3,12,7
6,2,-5,-4,5,-1,11,16,17,5,11,2
5,2,-4,-3,4,0,13,19,19,6,11,-1
3,1,-3,-2,3,0,14,20,20,7,10,-4
2,0,-2,-1,2,0,14,21,21,8,10,-6
1,0,-2,0,2,0,14,22,21,8,10,-7
1,0,-1,0,2,0,14,22,22,9,10,-7
1,1,-1,-1,2,0,14,23,22,9,9,-7
1,1,-1,-1,1,0,14,23,23,10,9,-8
1,1,-1,0,1,0,14,23,23,10,9,-8
1,1,-1,0,1,0,15,24,23,10,9,-9
1,1,-1,0,1,0,15,24,24,10,9,-10
1,1,-1,0,1,0,15,25,24,10,9,-10
1,1,0,0,1,0,15,25,24,10,9,-11
1,1,0,0,1,0,15,25,24,10,9,-11
1,1,0,-1,1,0,15,25,24,10,9,-11
1,1,0,-1,1,1,15,25,24,10,9,-11
1,1,0,-1,1,1,15,25,24,11,9,-11
1,1,0,-1,1,1,15,25,24,11,9,-11
1,1,0,-1,1,1,15,25,24,11,9,-11
1,1,0,-1,1,1,15,25,24,11,9,-11
1,1,0,-1,1,1,15,25,24,11,9,-12
1,2,0,-2,1,1,15,25,25,11,9,-12
1,2,0,-2,1,1,15,26,25,12,9,-12
1,2,0,-2,1,1,15,26,25,12,9,-12
1,2,0,-2,1,1,15,26,25,12,9,-12
1,2,0,-2,1,1,15,26,25,12,9,-12
1,2,0,-2,1,1,15,26,25,12,9,-12
2,3,0,-2,1,1,15,27,26,13,9,-12
2,3,0,-2,1,1,15,27,26,13,9,-12
2,3,0,-2,1,1,15,27,27,13,9,-12
2,3,0,-3,1,1,15,27,27,13,9,-12
3,4,0,-3,2,2,16,28,28,13,9,-11
3,4,0,-4,2,2,16,28,28,13,9,-11
3,4,0,-4,2,2,16,28,28,14,9,-11
4,4,0,-4,3,2,16,29,29,14,9,-11
4,4,0,-4,3,1,16,29,29,14,9,-11
4,3,0,-3,2,1,16,30,29,14,9,-11
4,3,0,-3,2,1,16,30,30,15,9,-11
4,3,0,-3,2,1,16,30,30,15,9,-11
4,3,0,-3,2,1,16,30,30,15,9,-11
4,3,0,-3,2,1,16,30,30,15,9,-11
3,3,0,-3,2,1,16,30,30,15,9,-11
3,4,0,-3,2,1,16,31,31,16,9,-10
3,4,0,-3,2,1,16,31,31,17,10,-10
3,4,0,-4,2,1,16,32,32,17,10,-10
4,4,0,-4,2,1,16,33,33,18,10,-10
4,4,0,-4,2,1,16,33,33,18,10,-10
4,4,0,-4,2,1,16,34,34,18,10,-10
4,4,0,-4,2,2,16,34,34,19,10,-10
4,4,0,-4,2,2,16,35,35,19,10,-10
4,4,0,-4,3,1,16,35,35,20,10,-11
4,4,0,-4,3,1,16,36,36,20,11,-11
4,4,0,-4,3,1,16,37,37,21,11,-11
4,3,0,-4,3,1,17,38,38,21,11,-11
3,3,0,-3,3,1,17,38,38,22,11,-11
3,3,0,-3,3,1,17,39,39,22,11,-11
3,4,0,-4,3,1,18,40,40,23,11,-11
4,4,0,-5,3,1,18,41,41,24,12,-11
5,5,0,-5,3,1,18,42,42,24,12,-11
5,5,0,-5,3,1,18,43,43,25,12,-11
4,4,0,-4,3,1,18,44,43,26,12,-12
4,4,0,-4,3,1,18,45,44,26,12,-12
4,3,0,-4,3,1,18,46,45,27,13,-12
4,3,-1,-4,3,1,19,47,46,27,13,-12
4,4,-1,-4,3,1,20,48,47,28,14,-12
4,4,-1,-5,4,1,20,49,48,29,14,-12
4,4,-2,-5,4,0,20,50,49,30,15,-12
4,3,-2,-4,4,0,20,51,50,31,15,-12
4,3,-2,-4,4,0,21,52,51,32,15,-12
5,3,-2,-4,4,0,21,53,52,33,16,-12
5,3,-2,-4,4,0,21,55,54,34,16,-12
5,3,-2,-4,4,0,21,56,55,35,17,-12
5,3,-2,-4,4,0,21,57,56,36,17,-12
5,3,-3,-4,4,0,21,58,57,36,18,-12
5,2,-3,-4,4,0,21,59,58,37,18,-12
5,2,-3,-4,4,0,22,60,59,38,18,-12
5,2,-3,-4,4,-1,22,61,60,39,18,-12
5,2,-3,-4,4,-1,22,62,61,39,19,-12
5,2,-4,-4,5,-2,22,63,62,40,19,-12
6,2,-4,-4,5,-2,23,64,63,42,20,-11
6,2,-5,-5,6,-2,23,65,64,43,21,-11
6,2,-5,-5,6,-2,23,66,65,44,21,-11
6,2,-5,-5,6,-2,23,67,66,45,22,-11
7,2,-5,-6,6,-2,23,68,67,46,22,-11
7,2,-5,-6,6,-2,23,69,68,47,23,-11
8,2,-5,-6,7,-2,23,69,69,48,23,-10
8,2,-6,-6,7,-2,23,70,70,49,24,-10
9,2,-6,-6,8,-2,23,71,71,50,24,-10
9,2,-7,-7,8,-2,23,72,72,51,25,-9
10,2,-7,-7,9,-2,23,73,73,51,25,-9
10,2,-8,-7,9,-2,23,73,74,52,25,-9
10,1,-8,-7,9,-3,23,74,74,53,26,-9
10,1,-9,-7,9,-4,23,74,75,54,27,-9
10,1,-9,-7,10,-4,23,74,75,54,28,-8
11,1,-9,-7,10,-4,23,74,76,55,28,-8
11,1,-9,-7,10,-4,23,74,76,55,29,-7
11,1,-10,-7,11,-4,22,74,76,56,29,-7
11,1,-10,-7,11,-4,22,74,76,56,30,-6
12,1,-11,-7,12,-4,22,74,76,56,30,-6
12,1,-11,-7,12,-5,21,73,75,56,31,-5
12,1,-11,-7,12,-5,21,72,75,56,32,-5
12,1,-11,-7,12,-5,20,71,74,56,32,-4
13,1,-11,-7,12,-5,19,70,73,56,33,-3
13,1,-11,-7,12,-5,18,69,72,56,33,-2
13,2,-11,-8,12,-5,18,68,71,56,34,-2
14,2,-11,-8,13,-4,17,67,70,56,34,-1
14,3,-11,-8,13,-4,16,65,69,55,34,-1
14,3,-11,-9,13,-4,15,63,67,54,34,0
14,3,-11,-9,13,-4,14,61,65,53,34,0
14,3,-11,-10,13,-4,13,59,63,52,34,1
14,3,-11,-10,13,-4,13,57,61,51,35,2
14,4,-11,-10,13,-3,12,55,59,50,35,3
15,4,-10,-10,13,-3,12,53,57,49,35,4
15,4,-10,-10,13,-3,11,51,55,48,35,5
15,4,-10,-10,13,-3,10,48,53,46,35,5
15,5,-10,-11,13,-2,9,46,50,45,35,6
15,6,-10,-11,12,-1,8,43,48,43,34,6
15,6,-9,-11,12,0,7,40,45,41,34,7
15,7,-8,-11,11,0,5,37,42,39,33,7
15,7,-6,-11,11,1,4,35,39,36,31,7
14,8,-5,-11,10,1,3,32,36,34,29,7
14,8,-4,-11,10,2,3,30,33,32,28,7
14,9,-3,-11,9,2,2,28,31,30,27,7
13,9,-3,-11,9,2,2,25,29,28,26,7
13,10,-3,-11,8,3,1,23,26,26,25,7
12,10,-2,-11,8,3,1,20,23,23,24,7
11,9,-2,-10,7,3,0,18,20,21,22,7
10,9,-1,-9,6,4,0,16,18,19,20,7
9,9,-1,-9,5,4,0,15,16,17,18,7
9,9,0,-9,5,4,-1,13,15,15,16,6
8,8,0,-9,5,4,-1,12,13,13,15,6
8,8,0,-9,5,4,-1,11,12,12,13,5
7,7,0,-9,5,4,-1,9,10,10,12,5
7,7,0,-8,4,4,-1,8,9,9,11,4
6,7,0,-8,4,4,-1,6,7,7,10,3
6,7,0,-8,4,4,-2,5,6,6,9,3
6,7,1,-7,3,4,-2,4,5,5,7,3
6,7,1,-7,3,4,-2,4,4,4,6,2
6,7,1,-7,3,4,-2,3,4,3,5,1
6,7,1,-7,2,4,-2,3,3,2,4,0
5,6,2,-6,2,4,-2,2,2,1,3,0
5,6,2,-6,2,4,-2,2,2,0,3,0
4,5,2,-5,1,4,-2,2,1,0,2,-1
3,5,2,-5,1,4,-2,1,0,-1,1,-1
3,4,2,-4,1,3,-2,1,0,-1,0,-2
3,4,1,-4,1,3,-2,1,0,-2,-1,-2
3,3,1,-4,1,2,-2,1,0,-3,-2,-3
2,3,1,-3,1,2,-1,1,0,-3,-3,-4
2,3,1,-3,1,2,-1,1,0,-4,-3,-4
2,3,1,-3,1,2,-1,0,0,-4,-3,-5
2,3,1,-3,1,2,0,0,0,-4,-3,-5
2,2,0,-3,1,1,0,0,0,-4,-3,-5
2,2,0,-3,1,1,0,0,0,-4,-3,-5
2,2,0,-2,1,0,0,1,0,-4,-3,-5
1,1,0,-2,1,0,0,1,0,-4,-4,-5
1,1,0,-1,1,0,0,1,0,-4,-4,-6
1,1,0,-1,1,0,0,1,0,-4,-5,-6
1,1,0,-1,1,0,0,1,0,-4,-5,-7
1,0,0,-1,1,0,0,1,0,-4,-5,-7
0,0,0,-1,1,0,0,1,0,-4,-5,-7
0,1,0,-2,1,1,0,1,0,-4,-6,-7
0,1,0,-1,0,1,0,1,0,-4,-6,-8
0,0,0,-1,0,0,0,1,0,-4,-7,-8
0,0,0,-1,0,0,1,1,0,-4,-7,-7
1,0,0,-1,0,0,1,1,0,-3,-6,-7
1,0,0,-1,0,0,1,1,0,-3,-6,-8
0,0,0,-1,0,0,1,1,0,-3,-6,-8
0,0,0,-1,0,0,0,1,0,-4,-6,-8
0,1,1,-1,0,0,0,1,1,-3,-6,-8
0,1,1,-1,0,1,0,1,1,-3,-6,-8
0,1,0,-1,0,1,0,1,1,-2,-6,-8
0,1,0,-1,0,1,0,1,1,-2,-5,-7
0,1,0,-1,0,1,0,2,1,-2,-5,-7
0,1,0,-1,0,0,1,2,1,-2,-5,-7
0,1,0,-1,0,0,1,3,2,-1,-5,-7
1,1,0,-1,1,0,2,3,2,-1,-5,-7
1,1,0,-1,1,0,2,4,3,-1,-5,-6
1,2,0,-1,1,1,1,4,3,-1,-6,-6
0,2,1,-1,0,1,1,4,3,-1,-6,-6
0,2,1,-1,0,1,1,4,3,-1,-6,-6
0,2,1,-1,0,1,1,4,3,-1,-6,-6
0,1,1,-1,0,1,1,4,3,-1,-6,-6
0,0,1,0,0,0,1,4,3,-1,-6,-7
0,0,0,0,0,0,1,4,3,-1,-5,-7
0,0,0,0,0,0,2,4,3,0,-5,-7
0,0,0,0,0,-1,2,4,3,0,-4,-7
-1,-1,0,0,0,-1,1,4,3,0,-4,-7
-1,-1,0,1,0,-1,1,4,3,0,-4,-7
-1,-1,0,1,0,-1,1,5,3,0,-4,-7
0,0,0,0,0,0,1,5,4,0,-4,-6
0,1,1,0,0,0,1,5,4,0,-4,-6
1,1,1,-1,0,1,1,5,5,1,-4,-6
1,2,1,-1,0,1,1,5,5,1,-3,-5
1,2,1,-2,0,1,1,6,5,1,-3,-5
0,2,1,-2,0,1,1,6,6,1,-3,-4
0,2,1,-1,0,0,1,7,6,2,-3,-4
0,1,1,-1,0,0,2,7,7,2,-2,-4
0,1,1,-1,0,0,2,7,7,3,-2,-4
0,2,1,-1,0,0,2,7,7,3,-2,-4
0,2,1,-1,0,0,2,7,7,3,-2,-4
0,2,1,-1,-1,1,2,7,7,3,-2,-4
1,4,2,-2,-1,2,2,7,7,4,-2,-4
1,5,3,-3,-1,3,2,7,7,4,-2,-3
1,6,3,-4,-1,4,1,7,7,4,-2,-3
1,6,4,-4,-1,5,0,7,8,4,-2,-3
2,7,4,-4,-1,5,-1,7,8,4,-2,-2
2,7,5,-5,-1,6,-1,7,8,5,-2,-2
2,7,5,-5,-1,6,-1,7,8,5,-1,-1
2,7,5,-5,-1,5,-1,6,9,5,-1,-1
2,7,5,-5,-1,5,-1,6,9,5,-1,0
2,7,4,-5,-1,5,-1,6,9,5,0,0
2,7,4,-5,0,5,-2,6,9,5,0,0
2,7,4,-5,0,5,-2,6,9,5,0,0
2,7,3,-5,0,4,-3,5,9,5,0,0
2,6,3,-5,0,4,-3,5,8,5,0,0
2,6,3,-5,0,4,-4,4,8,6,0,0
3,6,3,-5,0,4,-4,3,7,6,-1,0
3,6,3,-5,0,5,-5,3,7,6,-1,0
3,7,3,-5,0,5,-5,2,6,5,-2,0
3,7,3,-6,0,5,-6,1,5,4,-3,0
4,8,4,-6,0,5,-6,1,4,3,-4,0
4,8,4,-6,0,6,-6,1,4,3,-4,0
4,8,4,-6,0,6,-7,0,4,2,-4,0
4,7,3,-6,0,5,-7,0,4,2,-4,0
4,7,2,-6,0,5,-7,0,4,3,-4,0
4,6,2,-6,1,4,-6,1,4,3,-4,0
4,6,1,-6,1,3,-5,1,4,4,-4,0
4,5,0,-6,2,2,-5,2,4,4,-4,0
5,5,-1,-6,3,1,-4,2,4,4,-3,0
6,5,-2,-7,4,1,-4,3,5,4,-3,1
7,5,-3,-7,5,0,-4,3,5,4,-3,1
8,4,-3,-7,6,0,-5,3,5,4,-3,1
8,4,-4,-6,6,0,-5,3,5,3,-4,1
8,3,-4,-6,6,-1,-5,3,4,3,-4,1
7,2,-5,-5,6,-1,-5,3,4,3,-4,1
6,2,-5,-4,6,-2,-4,3,4,3,-4,1
6,2,-4,-4,6,-2,-3,3,4,3,-4,1
5,1,-4,-4,5,-1,-2,4,4,3,-4,0
3,0,-3,-2,4,-1,-1,4,4,3,-4,0
2,0,-3,-1,3,-1,0,4,4,3,-5,0
0,-1,-3,0,2,-1,0,4,4,3,-5,-1
0,-2,-2,0,1,-2,1,5,4,2,-6,-1
-1,-2,-2,1,0,-2,2,5,4,2,-7,-2
-1,-2,-2,1,0,-2,3,6,4,2,-7,-2
-2,-2,-2,1,0,-2,3,6,4,2,-8,-3
-2,-4,-2,2,0,-3,4,6,4,2,-8,-3
-2,-5,-2,3,0,-4,4,6,4,1,-9,-3
-2,-5,-3,3,0,-4,4,6,4,1,-9,-3
-2,-5,-3,3,0,-5,4,6,4,1,-9,-3
-2,-5,-4,3,0,-5,4,6,4,2,-9,-4
-2,-5,-3,3,0,-5,4,6,4,2,-9,-4
-3,-6,-3,4,0,-5,4,6,4,2,-9,-4
-4,-6,-3,4,0,-5,4,6,4,1,-10,-5
-3,-6,-3,4,0,-5,4,6,4,1,-10,-5
-3,-5,-3,4,0,-4,4,6,4,1,-9,-5
-2,-5,-3,3,0,-4,4,6,4,1,-9,-5
-1,-4,-3,3,0,-4,4,6,4,1,-9,-6
-2,-5,-4,3,0,-5,4,6,3,1,-10,-6
-3,-6,-4,4,0,-5,4,6,3,1,-10,-6
-3,-7,-4,5,0,-6,4,6,4,1,-10,-6
-3,-7,-5,5,0,-6,4,6,4,2,-10,-6
-3,-7,-5,5,0,-6,4,6,4,2,-10,-6
-3,-7,-5,5,0,-6,4,6,3,1,-10,-7
-3,-8,-4,5,0,-6,4,5,3,1,-10,-7
-4,-8,-4,5,0,-6,4,5,3,1,-10,-8
-4,-7,-4,5,0,-6,4,5,3,1,-10,-8
-4,-7,-4,5,0,-6,4,5,3,1,-10,-8
-4,-7,-4,5,0,-6,4,5,3,2,-10,-8
-4,-7,-4,5,0,-6,3,5,3,2,-10,-8
-4,-8,-4,5,0,-6,3,6,3,2,-10,-8
-3,-8,-4,4,1,-6,3,7,4,3,-9,-8
-3,-8,-5,4,1,-7,3,11,7,4,-8,-7
-2,-8,-6,4,2,-7,4,16,12,6,-7,-6
0,-7,-7,4,3,-7,5,23,17,10,-5,-5
1,-7,-8,3,4,-7,6,27,21,12,-3,-4
2,-6,-9,2,5,-7,6,29,23,14,-2,-3
3,-5,-9,1,5,-7,5,28,24,17,0,-2
3,-3,-8,0,5,-6,5,23,22,18,1,-1
2,-2,-5,0,3,-4,4,13,15,18,2,0
0,0,0,0,-1,0,3,-3,1,13,2,0
-4,1,5,0,-5,3,3,-23,-17,6,0,1
-6,3,10,1,-9,7,3,-41,-35,-1,-1,2
-8,6,15,1,-12,10,2,-59,-54,-10,-2,3
-11,8,20,1,-16,14,0,-79,-74,-20,-3,4
-14,11,25,1,-20,19,-6,-101,-95,-31,-5,6
-15,15,30,0,-23,23,-14,-124,-116,-43,-7,8
-15,19,34,-2,-25,26,-23,-146,-137,-54,-7,12
-14,22,36,-4,-25,29,-34,-166,-155,-64,-7,16
-13,24,37,-6,-26,31,-44,-183,-171,-74,-6,21
-12,26,38,-8,-26,32,-54,-197,-184,-84,-6,26
-11,29,40,-9,-26,34,-62,-207,-195,-93,-6,31
-10,32,41,-11,-26,36,-68,-213,-202,-101,-6,36
-8,34,42,-13,-25,38,-73,-217,-209,-109,-6,40
-7,36,43,-15,-25,39,-78,-221,-214,-117,-7,43
-7,36,43,-15,-26,39,-81,-224,-218,-125,-9,46
-8,36,44,-15,-26,39,-83,-226,-221,-132,-13,47
-9,35,44,-14,-27,39,-85,-227,-223,-138,-18,47
-11,35,46,-13,-28,40,-87,-229,-226,-145,-24,46
-12,36,49,-13,-30,42,-89,-231,-228,-152,-31,45
-14,38,52,-12,-32,45,-91,-233,-231,-159,-39,44
-15,40,55,-12,-35,47,-93,-234,-233,-166,-46,43
-17,41,59,-12,-38,49,-94,-233,-234,-172,-53,42
-19,43,62,-13,-40,52,-94,-231,-234,-176,-60,40
-19,45,65,-14,-42,54,-94,-227,-232,-179,-67,37
-20,47,67,-15,-43,57,-94,-221,-228,-180,-73,35
-20,49,69,-15,-44,58,-92,-213,-221,-178,-77,34
-21,49,69,-15,-44,58,-90,-203,-212,-174,-79,34
-21,47,68,-14,-44,57,-87,-191,-200,-167,-78,34
-21,44,66,-12,-43,54,-82,-178,-188,-159,-76,36
-20,40,61,-10,-41,50,-76,-164,-174,-150,-72,38
-19,36,55,-9,-37,45,-71,-151,-161,-140,-67,40
-16,31,48,-8,-32,39,-66,-137,-148,-130,-61,43
-14,26,40,-7,-27,33,-62,-125,-136,-121,-56,46
-12,20,31,-5,-21,25,-57,-113,-124,-113,-52,48
-11,12,23,-2,-16,17,-53,-101,-113,-104,-48,50
-10,4,14,1,-11,9,-48,-90,-102,-96,-43,53
-8,-3,5,4,-6,0,-42,-79,-91,-88,-38,55
-7,-10,-4,8,-1,-8,-37,-69,-81,-80,-33,56
-5,-17,-12,11,3,-16,-32,-59,-71,-72,-28,56
-3,-23,-21,13,8,-23,-27,-50,-63,-65,-25,56
-2,-29,-28,14,12,-29,-23,-42,-55,-59,-22,55
-1,-33,-33,16,16,-33,-20,-35,-48,-53,-19,54
-1,-35,-36,17,18,-36,-17,-28,-41,-46,-16,52
-1,-37,-37,18,18,-37,-14,-21,-34,-39,-14,48
-1,-37,-36,19,18,-37,-11,-15,-28,-33,-12,43
-2,-37,-35,19,16,-36,-9,-10,-22,-27,-11,37
-2,-35,-32,19,14,-34,-6,-5,-16,-22,-10,31
-3,-32,-28,17,12,-30,-3,-1,-11,-16,-9,25
-3,-27,-23,15,9,-25,-1,3,-5,-9,-7,20
-4,-22,-18,13,7,-20,0,7,0,-4,-6,15
-5,-19,-14,12,5,-16,0,10,5,0,-5,10
-6,-17,-12,11,3,-14,1,13,9,3,-5,6
-6,-16,-10,11,2,-13,3,15,12,6,-6,2
-7,-16,-10,11,2,-13,5,18,15,8,-6,-2
-7,-17,-9,12,1,-13,6,20,17,10,-6,-5
-8,-17,-9,12,0,-13,7,22,19,12,-6,-7
-9,-17,-8,12,0,-13,8,23,20,13,-6,-9
-9,-16,-8,12,0,-12,8,24,21,14,-7,-10
-10,-16,-7,12,0,-12,8,25,21,14,-7,-11
-10,-16,-7,12,0,-12,8,25,21,14,-7,-12
-10,-16,-7,12,0,-12,7,25,21,14,-7,-12
-9,-16,-7,12,0,-12,7,25,22,15,-7,-13
-10,-15,-6,12,-1,-11,7,25,22,15,-7,-14
-10,-15,-6,12,-2,-11,7,25,22,15,-8,-15
-10,-15,-5,12,-2,-11,7,25,22,15,-8,-16
-10,-15,-5,12,-2,-11,7,26,22,15,-8,-16
-10,-15,-5,12,-2,-11,8,26,22,15,-8,-16
-10,-15,-5,13,-2,-11,8,26,22,15,-7,-16
-10,-16,-5,13,-2,-11,8,26,22,15,-6,-16
-10,-16,-5,13,-2,-11,8,26,22,15,-6,-16
-10,-16,-5,13,-2,-11,8,27,22,16,-5,-16
-11,-16,-5,13,-2,-11,8,27,22,16,-5,-16
-12,-16,-5,13,-2,-11,8,28,23,16,-5,-16
-12,-17,-5,14,-3,-12,8,28,23,16,-5,-16
-12,-16,-5,13,-2,-12,8,29,23,17,-5,-16
-11,-16,-6,13,-2,-12,8,29,23,17,-5,-16
-10,-15,-6,12,-1,-12,8,29,23,17,-4,-16
-10,-15,-5,12,-1,-11,8,29,23,17,-4,-17
-11,-16,-5,13,-2,-11,8,29,23,17,-5,-17
-11,-16,-5,13,-2,-11,8,29,23,17,-5,-17
-12,-17,-6,13,-2,-11,8,29,24,17,-5,-17
-12,-17,-6,13,-2,-11,8,29,24,17,-5,-17
-12,-16,-5,13,-2,-11,8,29,24,17,-5,-17
-11,-16,-5,13,-2,-11,8,29,24,17,-5,-17
-10,-15,-4,13,-2,-11,8,29,24,18,-5,-16
-10,-15,-4,12,-2,-11,9,30,25,18,-5,-16
-11,-15,-5,13,-2,-11,9,30,25,18,-5,-16
-11,-16,-5,13,-2,-12,9,30,25,18,-5,-16
-11,-16,-5,13,-2,-12,9,31,25,18,-5,-16
-11,-15,-5,13,-2,-11,9,31,26,18,-5,-16
-10,-15,-6,12,-2,-11,9,32,26,19,-5,-16
-10,-15,-6,12,-2,-11,9,32,27,19,-4,-16
-10,-16,-6,13,-2,-12,9,33,28,20,-4,-17
-10,-16,-6,13,-2,-12,9,33,28,20,-4,-17
-10,-15,-6,12,-2,-11,9,34,29,20,-4,-17
-10,-15,-6,12,-2,-11,9,34,29,21,-4,-17
-10,-15,-6,12,-2,-11,9,34,30,21,-4,-17
-10,-15,-6,13,-2,-11,9,34,30,22,-3,-17
-10,-15,-6,13,-2,-11,9,35,31,23,-3,-17
-10,-15,-6,13,-2,-11,9,35,31,23,-2,-17
-10,-15,-6,13,-2,-11,9,36,32,23,-2,-17
-10,-15,-6,13,-2,-11,10,36,32,23,-2,-17
-10,-15,-6,13,-1,-11,10,37,33,24,-2,-17
-10,-16,-6,13,-1,-11,10,38,34,25,-2,-17
-10,-15,-6,12,-1,-11,10,39,35,26,-1,-17
-9,-15,-6,12,-1,-11,10,40,36,26,-1,-17
-9,-15,-6,11,-1,-11,10,40,37,27,0,-17
-9,-15,-6,11,-1,-11,10,41,37,28,0,-17
-9,-15,-6,11,-1,-12,10,41,38,28,0,-17
-9,-15,-7,11,0,-12,11,42,39,29,1,-17
-9,-15,-7,11,0,-12,11,43,40,30,1,-17
-9,-15,-7,11,0,-11,11,44,41,30,1,-17
-9,-14,-7,11,0,-11,12,45,42,31,2,-17
-9,-14,-7,11,0,-11,12,46,43,32,2,-17
-8,-14,-7,11,0,-11,12,46,44,33,2,-17
-8,-14,-7,11,0,-11,12,47,45,34,3,-17
-8,-14,-7,11,0,-11,12,48,45,35,3,-17
-8,-14,-7,11,0,-11,12,49,46,35,4,-17
-8,-14,-7,11,0,-11,12,51,47,36,4,-17
-7,-14,-7,11,1,-11,13,52,49,37,5,-17
-7,-14,-7,11,1,-11,13,53,50,38,6,-17
-7,-14,-8,11,1,-12,14,54,51,39,6,-17
-7,-14,-8,11,1,-12,14,55,52,40,7,-17
-7,-14,-8,10,1,-12,15,56,54,41,7,-17
-6,-14,-8,10,1,-12,15,57,55,43,8,-16
-5,-13,-9,9,2,-12,15,58,56,44,9,-15
-6,-14,-9,9,2,-12,15,59,57,45,10,-16
-6,-14,-9,9,2,-12,14,60,58,46,10,-16
-5,-14,-9,9,2,-12,15,61,59,47,11,-16
-5,-13,-9,9,2,-12,15,62,60,48,11,-16
-6,-14,-9,9,1,-12,15,62,61,49,11,-17
-7,-14,-9,10,1,-12,15,63,62,49,11,-18
-6,-14,-9,9,2,-12,16,64,63,50,11,-17
-5,-15,-9,9,2,-13,16,65,64,50,11,-17
-5,-15,-10,9,3,-13,17,67,65,52,12,-16
-4,-15,-10,9,4,-13,17,68,67,53,14,-15
-3,-15,-11,8,4,-13,18,69,68,55,16,-15
-3,-15,-12,8,5,-14,18,70,69,56,17,-14
-3,-15,-12,8,5,-14,18,71,70,58,19,-14
-2,-15,-13,8,6,-14,18,72,72,60,20,-13
-2,-15,-13,8,6,-15,18,72,73,61,20,-13
-2,-15,-13,8,5,-15,18,72,73,61,21,-13
-2,-15,-13,8,5,-15,18,73,73,62,21,-13
-2,-15,-13,8,6,-15,18,73,74,62,22,-13
-1,-15,-13,8,6,-15,18,74,75,63,22,-13
-1,-15,-14,8,6,-15,18,74,75,64,23,-13
-1,-15,-14,8,7,-15,18,75,75,64,23,-13
-1,-15,-14,8,7,-15,17,75,76,65,24,-12
-1,-15,-14,7,7,-15,17,74,76,66,24,-12
0,-14,-14,7,8,-15,17,74,77,67,25,-12
0,-14,-15,6,8,-15,17,74,77,67,26,-11
1,-13,-15,5,9,-15,17,74,77,68,27,-10
1,-14,-16,5,9,-15,17,73,77,68,28,-9
1,-14,-16,5,9,-15,17,72,76,68,28,-8
2,-14,-16,5,9,-15,17,71,76,68,29,-6
3,-14,-17,5,10,-15,17,70,76,68,30,-5
4,-13,-17,4,10,-15,16,69,75,68,31,-4
4,-13,-17,4,10,-15,15,68,74,68,32,-3
4,-13,-17,4,10,-15,14,66,73,68,32,-3
4,-12,-17,3,10,-15,13,64,71,67,32,-2
5,-12,-17,3,10,-15,12,62,70,66,32,-1
5,-11,-16,3,10,-15,11,60,68,65,32,0
5,-11,-16,3,10,-14,11,57,66,64,32,0
5,-11,-16,3,10,-14,10,55,64,62,32,1
5,-10,-15,2,10,-13,10,53,62,61,32,2
5,-10,-15,2,11,-13,9,50,60,59,32,2
5,-10,-15,2,11,-13,8,48,57,58,32,3
4,-11,-15,3,10,-13,7,45,55,56,32,3
4,-11,-15,3,10,-13,6,43,52,55,31,3
4,-9,-14,2,9,-12,6,41,50,53,30,4
4,-8,-13,2,9,-11,5,38,47,51,29,4
4,-7,-12,1,8,-10,5,36,45,48,29,4
4,-7,-12,1,8,-10,4,33,42,46,28,4
4,-7,-11,1,7,-10,4,31,40,44,27,4
3,-8,-11,2,6,-10,2,28,37,41,25,5
1,-8,-10,3,5,-10,1,26,33,39,24,5
0,-8,-9,3,4,-9,0,23,30,37,22,5
0,-8,-7,4,3,-8,-1,21,27,34,20,5
-1,-7,-6,4,2,-8,-2,18,25,31,18,4
-1,-7,-5,4,2,-7,-2,16,22,28,16,4
-2,-7,-4,4,1,-7,-3,14,20,26,14,3
-2,-7,-4,4,1,-7,-3,12,18,24,13,3
-3,-8,-4,4,1,-7,-3,11,17,22,11,3
-4,-8,-4,5,0,-7,-3,9,15,20,10,2
-5,-9,-4,6,0,-8,-4,8,13,18,8,2
-5,-10,-4,7,0,-8,-4,7,11,16,7,1
-6,-10,-4,8,0,-9,-4,5,9,15,5,1
-7,-11,-4,8,-1,-9,-4,4,8,13,4,1
-7,-11,-4,8,-1,-8,-4,3,8,12,4,0
-7,-11,-4,8,-2,-8,-4,2,7,11,3,0
-8,-11,-4,8,-2,-8,-4,1,6,9,2,-1
-8,-10,-4,8,-2,-7,-5,1,4,8,0,-2
-8,-10,-3,8,-2,-7,-4,0,3,7,-1,-3
-8,-11,-3,9,-2,-7,-4,0,2,6,-2,-4
-9,-13,-3,10,-3,-8,-4,0,2,5,-3,-5
-10,-14,-3,11,-3,-9,-4,-1,1,4,-5,-6
-10,-14,-3,12,-3,-9,-4,-1,1,3,-6,-6
-11,-15,-3,12,-3,-10,-4,-2,0,2,-7,-7
-12,-15,-3,13,-4,-10,-5,-2,0,1,-8,-8
-12,-15,-3,12,-4,-10,-5,-2,0,1,-8,-8
-11,-14,-3,11,-3,-9,-5,-2,0,1,-9,-8
-11,-14,-3,11,-3,-9,-5,-2,0,1,-9,-8
-11,-14,-3,12,-3,-10,-4,-2,0,1,-9,-8
-11,-15,-3,12,-3,-10,-4,-2,0,1,-9,-8
-11,-15,-4,12,-3,-10,-4,-2,0,1,-9,-9
-11,-15,-4,13,-3,-10,-4,-2,0,0,-10,-10
-11,-15,-4,13,-3,-10,-4,-2,0,0,-11,-10
-12,-16,-4,13,-3,-11,-3,-1,0,0,-11,-10
-12,-16,-5,13,-3,-11,-3,-1,0,0,-11,-10
-12,-16,-5,13,-3,-11,-3,-1,0,0,-11,-10
-12,-16,-5,13,-3,-11,-3,0,0,0,-11,-10
-12,-17,-5,13,-3,-11,-3,0,0,0,-11,-10
-12,-17,-5,14,-3,-12,-3,0,0,0,-11,-10
-12,-17,-5,13,-3,-12,-3,0,0,1,-11,-10
-11,-16,-4,13,-3,-11,-3,1,0,1,-11,-10
-11,-15,-4,12,-3,-10,-3,1,0,2,-10,-10
-11,-15,-4,12,-3,-10,-3,1,0,2,-10,-10
-11,-14,-4,12,-3,-10,-3,1,0,2,-11,-10
-11,-14,-4,13,-3,-10,-3,2,0,2,-11,-10
-12,-15,-4,14,-4,-10,-2,2,0,2,-11,-10
-13,-17,-4,15,-4,-11,-2,2,0,2,-11,-10
-13,-18,-5,15,-4,-11,-2,3,1,2,-11,-10
-13,-18,-5,14,-3,-11,-2,3,1,2,-11,-10
-13,-17,-5,14,-3,-11,-2,3,1,3,-10,-10
-13,-16,-4,13,-4,-11,-2,3,1,3,-10,-10
-13,-16,-4,13,-4,-11,-2,3,1,3,-10,-10
-12,-16,-4,13,-3,-11,-1,4,1,3,-10,-10
-12,-16,-4,13,-3,-11,-1,4,2,3,-10,-9
-12,-16,-4,13,-3,-11,-1,4,2,3,-9,-9
-12,-16,-4,13,-3,-11,-1,4,3,4,-9,-9
-12,-16,-4,13,-3,-11,-1,4,3,4,-8,-9
-12,-16,-4,13,-3,-11,-1,4,3,4,-8,-9
-13,-16,-4,13,-4,-11,-1,4,3,4,-9,-10
-13,-16,-4,13,-4,-11,-1,4,3,4,-9,-10
-13,-15,-4,13,-4,-10,-1,5,3,4,-9,-10
-11,-14,-4,12,-3,-9,-1,5,3,5,-9,-10
-11,-13,-3,11,-3,-9,-1,6,3,5,-8,-9
-11,-14,-3,11,-3,-9,-1,6,3,5,-8,-9
-11,-14,-3,12,-3,-9,0,6,3,5,-8,-8
-11,-15,-4,12,-3,-9,0,6,3,5,-7,-8
-11,-15,-4,13,-3,-10,0,6,3,5,-7,-8
-11,-16,-5,13,-3,-11,0,6,3,6,-7,-8
-11,-16,-5,13,-3,-11,0,7,3,6,-7,-7
-11,-15,-5,12,-2,-11,0,7,3,7,-7,-7
-10,-14,-4,12,-2,-10,0,7,3,7,-7,-7
-11,-13,-4,12,-3,-9,0,7,3,7,-6,-7
-11,-13,-3,12,-3,-8,0,7,3,7,-5,-6
-10,-12,-3,11,-3,-8,0,7,3,7,-4,-6
-10,-12,-3,11,-3,-8,0,7,4,8,-4,-5
-10,-12,-3,11,-3,-7,0,7,4,8,-3,-5
-10,-11,-2,10,-3,-7,0,7,5,9,-2,-5
-10,-11,-1,10,-4,-6,0,7,5,9,-2,-5
-10,-10,0,10,-4,-5,0,7,5,9,-3,-5
-10,-10,0,9,-4,-5,0,8,6,9,-3,-5
-10,-10,0,9,-4,-5,0,8,6,10,-3,-5
-10,-10,0,9,-4,-5,0,8,6,10,-3,-5
-10,-10,0,9,-4,-6,0,8,7,10,-3,-4
-10,-10,0,9,-4,-6,0,8,7,10,-2,-3
-10,-10,0,9,-4,-6,-1,8,7,10,-2,-3
-10,-10,0,9,-4,-6,-1,8,7,11,-2,-2
-10,-9,0,8,-4,-5,-1,8,8,11,-2,-2
-9,-8,1,8,-4,-4,-1,8,8,11,-2,-2
-9,-7,1,7,-4,-3,-2,7,7,11,-2,-1
-9,-7,1,7,-4,-3,-3,6,7,11,-2,-1
-9,-7,1,7,-4,-3,-4,6,6,11,-1,0
-8,-7,1,7,-4,-3,-5,5,6,12,-1,0
-8,-7,0,6,-3,-3,-5,5,6,12,-1,1
-7,-7,0,6,-3,-3,-6,5,6,12,0,1
-7,-6,0,6,-2,-3,-6,5,6,12,0,2
-7,-6,0,6,-2,-3,-6,5,6,12,0,2
-7,-6,0,6,-2,-3,-6,4,5,12,-1,2
-7,-6,0,6,-2,-3,-6,4,4,11,-1,1
-8,-6,0,6,-2,-3,-6,3,4,11,-2,1
-8,-6,1,6,-3,-3,-7,3,3,10,-3,1
-7,-6,1,5,-3,-3,-7,3,3,10,-3,1
-7,-6,0,5,-2,-3,-7,3,3,9,-3,1
-7,-6,0,6,-2,-3,-6,3,3,9,-3,1
-6,-6,0,6,-2,-4,-6,3,3,9,-3,1
-5,-6,-1,6,-1,-4,-6,3,3,9,-3,2
-4,-6,-2,5,0,-4,-5,3,3,10,-2,2
-3,-6,-3,5,1,-5,-5,4,4,10,-2,3
-3,-6,-4,4,2,-5,-4,4,4,11,-1,3
-3,-7,-5,4,2,-6,-4,4,4,11,-1,3
-3,-8,-6,5,3,-7,-4,4,4,11,-1,3
-2,-9,-7,5,3,-8,-4,4,4,11,-1,2
-2,-9,-7,5,4,-9,-4,5,4,11,-1,2
-2,-9,-8,5,4,-9,-3,5,4,11,-1,3
-2,-9,-8,5,4,-9,-3,5,4,10,-2,3
-3,-10,-7,6,3,-9,-2,5,4,10,-2,2
-4,-10,-7,7,3,-9,-1,5,5,11,-2,2
-5,-11,-6,7,2,-9,0,6,5,11,-2,2
-6,-11,-6,8,1,-9,0,6,5,11,-3,1
-7,-11,-5,8,0,-9,1,7,5,11,-3,0
-7,-11,-5,9,0,-8,1,7,4,11,-4,0
-8,-11,-5,9,0,-8,2,8,4,10,-4,0
-8,-12,-5,10,0,-9,2,8,4,10,-5,-1
-9,-13,-5,11,0,-9,2,8,4,10,-5,-1
-9,-14,-5,11,0,-9,2,8,4,9,-6,-2
-9,-14,-6,10,0,-9,3,8,4,9,-6,-2
-8,-14,-6,10,0,-10,3,8,4,9,-6,-2
-8,-14,-6,10,0,-10,3,8,4,9,-6,-2
-9,-14,-6,11,0,-10,3,9,4,9,-6,-3
-9,-14,-6,11,0,-10,3,9,3,8,-6,-3
-9,-14,-6,11,0,-10,3,9,3,8,-6,-3
-9,-14,-6,11,0,-10,3,9,3,8,-6,-3
-10,-15,-6,12,0,-10,3,8,3,8,-6,-3
-10,-15,-6,12,0,-10,3,8,4,8,-6,-3
-10,-15,-6,12,0,-10,4,8,4,8,-5,-3
-10,-16,-6,12,0,-11,4,8,4,8,-5,-3
-10,-16,-6,12,0,-11,4,8,4,8,-5,-3
-10,-17,-7,12,0,-11,4,8,4,8,-5,-3
-10,-17,-7,12,0,-11,3,8,4,8,-5,-3
-10,-17,-7,12,0,-11,3,8,4,8,-5,-3
-10,-17,-7,12,0,-11,3,8,4,8,-5,-4
-10,-16,-7,12,0,-11,3,8,4,8,-5,-4
-10,-16,-7,12,0,-11,3,8,4,8,-5,-4
-10,-16,-6,12,-1,-11,3,8,4,8,-6,-4
-10,-16,-6,12,-1,-11,3,8,4,8,-6,-4
-10,-16,-6,12,-1,-11,3,8,4,8,-5,-4
-10,-16,-7,12,-1,-11,3,8,4,8,-5,-4
-10,-17,-7,12,-1,-11,3,8,4,8,-4,-4
-10,-17,-7,13,-1,-12,3,8,5,8,-4,-4
-10,-17,-8,13,0,-12,4,10,7,9,-3,-3
-10,-17,-8,12,0,-12,4,15,11,11,-3,-3
-9,-17,-9,12,1,-12,5,20,16,14,-2,-2
-8,-18,-10,12,1,-13,6,25,21,16,0,-1
-8,-17,-11,12,2,-13,6,27,24,19,1,0
-7,-16,-11,11,3,-13,6,27,24,22,4,0
-6,-15,-10,10,3,-13,5,25,23,24,6,1
-7,-14,-9,9,2,-11,4,18,17,24,7,2
-8,-12,-5,9,0,-8,3,4,5,22,8,3
-11,-10,1,9,-5,-4,2,-13,-12,15,7,4
-14,-7,7,9,-9,0,2,-32,-32,7,6,5
-17,-4,13,9,-14,5,1,-49,-51,-2,5,6
-19,0,18,9,-18,9,0,-66,-70,-13,4,8
-21,4,24,8,-22,14,-3,-85,-91,-24,3,10
-22,8,30,6,-25,19,-9,-107,-113,-38,1,13
-23,12,34,5,-27,24,-17,-128,-135,-52,0,16
-22,15,37,3,-28,27,-26,-148,-155,-64,0,21
-21,18,38,1,-29,29,-37,-167,-173,-76,1,27
-20,20,40,-1,-29,31,-46,-182,-189,-88,1,32
-18,23,41,-3,-29,33,-55,-193,-201,-99,2,38
-16,26,42,-6,-29,35,-61,-200,-210,-110,2,43
-15,29,43,-8,-28,36,-66,-205,-217,-119,1,48
-14,30,43,-9,-28,37,-71,-209,-222,-128,0,52
-13,31,44,-10,-27,38,-75,-213,-226,-136,-1,55
-13,31,44,-10,-27,38,-77,-216,-229,-143,-5,56
-14,31,44,-10,-28,38,-79,-218,-231,-150,-11,56
-15,31,45,-9,-28,39,-81,-219,-233,-156,-18,55
-16,32,47,-10,-30,40,-82,-221,-235,-162,-26,54
-17,34,50,-10,-32,42,-84,-223,-238,-170,-34,53
-18,36,54,-10,-35,45,-86,-225,-240,-177,-44,51
-20,38,58,-10,-38,48,-87,-225,-242,-184,-53,49
-21,41,62,-10,-40,51,-87,-223,-242,-190,-61,47
-22,43,65,-11,-42,54,-88,-220,-241,-194,-69,44
-23,44,67,-11,-43,55,-88,-216,-237,-196,-77,42
-24,44,68,-11,-44,57,-87,-209,-232,-196,-84,40
-24,45,69,-11,-45,57,-86,-200,-223,-192,-88,39
-24,44,68,-11,-45,56,-83,-189,-212,-185,-89,38
-24,42,66,-10,-44,54,-78,-176,-199,-176,-86,39
-23,39,62,-9,-42,51,-73,-162,-184,-165,-82,40
-22,35,56,-8,-38,46,-67,-149,-170,-154,-77,42
-19,29,49,-6,-33,40,-62,-136,-156,-142,-71,44
-17,24,40,-5,-28,33,-57,-124,-143,-131,-65,47
-14,18,31,-3,-22,25,-53,-112,-131,-121,-59,50
-13,11,23,0,-16,17,-48,-101,-119,-111,-53,53
-11,4,14,2,-11,9,-43,-89,-107,-102,-47,55
-8,-2,4,4,-5,1,-38,-77,-95,-92,-41,58
-6,-10,-4,7,0,-7,-32,-66,-84,-83,-34,60
-5,-17,-13,10,5,-15,-27,-56,-74,-74,-28,61
-4,-24,-22,13,10,-23,-23,-47,-65,-67,-23,61
-3,-31,-29,16,14,-29,-19,-39,-57,-59,-19,61
-2,-35,-34,17,17,-34,-15,-32,-50,-53,-16,60
-2,-38,-38,19,19,-38,-12,-26,-43,-46,-14,58
-2,-40,-39,20,20,-39,-9,-20,-36,-40,-11,55
-2,-40,-40,20,20,-39,-6,-14,-29,-33,-8,51
-2,-40,-39,20,19,-39,-3,-8,-23,-27,-6,45
-2,-38,-37,20,18,-37,0,-3,-17,-21,-4,39
-3,-36,-33,19,16,-34,3,1,-11,-15,-2,33
-3,-32,-29,17,14,-30,5,6,-5,-9,0,27
-4,-28,-24,15,12,-26,6,10,0,-3,1,22
-4,-24,-20,13,10,-21,7,13,5,1,2,18
-4,-20,-17,12,8,-18,7,16,9,6,2,13
-5,-18,-14,11,6,-16,8,19,12,9,2,8
-5,-17,-13,11,4,-14,10,22,15,12,2,3
-6,-16,-12,11,3,-13,11,24,18,14,3,0
-6,-16,-11,11,3,-13,13,26,20,15,3,-3
-7,-16,-10,11,2,-13,14,27,21,16,2,-5
-7,-16,-10,11,2,-13,14,27,22,17,2,-7
-7,-16,-9,11,2,-13,14,28,22,18,1,-8
-7,-15,-9,10,2,-12,14,28,22,18,1,-8
-7,-15,-9,10,2,-12,14,29,23,18,1,-8
-6,-14,-9,9,2,-12,15,29,23,18,2,-9
-6,-13,-9,9,2,-12,15,30,24,19,2,-10
-7,-14,-9,10,2,-12,16,30,24,19,2,-11
-7,-14,-9,10,2,-12,16,30,24,19,2,-12
-7,-14,-9,10,2,-11,16,31,24,19,2,-12
-7,-14,-8,9,2,-11,16,31,24,19,2,-12
-7,-13,-8,9,2,-11,16,31,24,19,2,-12
-7,-13,-8,9,2,-11,16,31,24,19,2,-12
-7,-13,-8,9,2,-11,16,31,25,19,2,-12
-6,-13,-8,9,2,-11,16,32,25,19,2,-13
-6,-13,-8,9,2,-11,16,32,25,19,2,-13
-6,-13,-8,9,2,-11,16,32,26,19,3,-13
-6,-13,-8,8,2,-11,16,32,26,19,3,-13
-6,-13,-8,8,2,-10,16,32,26,19,3,-13
-6,-12,-7,8,2,-10,16,32,26,19,3,-14
-6,-12,-7,8,2,-10,16,32,26,19,3,-14
-6,-12,-8,8,2,-10,16,32,26,19,3,-14
-6,-12,-8,8,2,-10,16,33,26,19,3,-14
-6,-12,-8,8,2,-10,16,33,26,19,3,-14
-5,-11,-8,7,2,-10,17,34,26,19,3,-14
-5,-11,-8,7,2,-10,17,34,26,19,3,-14
-5,-11,-8,7,2,-9,17,34,27,19,4,-14
-5,-11,-8,7,2,-9,17,34,27,20,4,-14
-4,-10,-8,6,3,-9,17,35,28,20,4,-14
-4,-10,-8,6,3,-9,17,35,28,20,4,-14
-4,-10,-7,5,3,-9,17,35,28,20,5,-14
-4,-10,-7,5,3,-9,17,36,28,20,5,-14
-4,-10,-7,5,3,-9,18,36,29,20,5,-15
-4,-10,-7,5,3,-9,18,36,29,21,5,-15
-3,-9,-7,5,3,-9,19,36,30,21,5,-14
-3,-9,-7,5,3,-9,19,37,30,22,6,-14
-2,-9,-8,5,4,-9,19,37,31,22,6,-15
-3,-9,-8,5,4,-9,19,37,31,22,7,-15
-3,-10,-8,5,4,-9,19,37,31,22,7,-15
-3,-10,-8,5,3,-9,20,38,32,22,7,-15
-3,-10,-8,5,3,-9,20,38,32,23,7,-16
-3,-10,-8,5,3,-9,20,39,33,23,7,-16
-3,-10,-8,5,3,-9,20,39,33,24,7,-16
-3,-10,-8,5,3,-9,20,40,34,24,8,-16
-3,-10,-8,5,3,-9,20,40,35,25,8,-16
-3,-9,-8,5,3,-9,21,41,36,25,8,-16
-3,-9,-8,5,3,-9,21,41,36,25,9,-16
-3,-9,-8,5,3,-8,21,42,37,26,9,-16
-3,-10,-8,5,3,-8,21,42,37,26,9,-16
-3,-10,-8,5,3,-8,21,43,38,27,9,-17
-3,-10,-8,5,3,-8,21,43,38,27,10,-17
-3,-10,-8,5,3,-8,22,44,39,27,10,-17
-2,-10,-8,5,3,-8,22,44,40,28,11,-17
-2,-10,-8,5,3,-8,22,45,41,28,11,-18
-3,-10,-8,6,3,-9,22,46,42,29,11,-18
-3,-10,-8,6,3,-9,22,46,42,29,11,-18
-3,-10,-8,6,3,-9,22,47,43,30,12,-18
-3,-10,-8,6,3,-9,22,48,44,31,12,-18
-3,-10,-8,6,3,-9,22,49,45,32,13,-18
-3,-11,-9,6,3,-9,22,50,46,32,13,-18
-3,-11,-9,6,3,-10,22,51,47,33,13,-19
-3,-11,-9,6,3,-10,23,52,48,33,14,-19
-3,-11,-9,6,3,-10,23,53,49,34,14,-19
-3,-11,-9,6,3,-10,23,54,50,35,14,-19
-3,-11,-9,6,3,-10,24,55,51,36,15,-19
-3,-11,-9,6,3,-10,24,56,53,37,15,-19
-3,-11,-9,6,3,-10,24,57,54,38,16,-19
-3,-11,-9,6,3,-10,24,58,55,39,16,-19
-3,-12,-9,7,3,-10,24,59,57,40,17,-19
-3,-12,-9,7,4,-10,24,60,58,40,17,-19
-3,-12,-9,7,4,-10,24,61,59,41,18,-19
-3,-12,-9,6,4,-10,25,62,60,42,18,-19
-2,-12,-10,6,4,-10,25,64,61,43,19,-19
-2,-12,-10,6,4,-10,26,65,62,44,19,-19
-1,-11,-10,6,5,-10,26,66,63,45,20,-19
-1,-11,-10,5,5,-10,26,67,64,46,21,-19
-1,-11,-11,5,5,-11,26,68,65,47,21,-19
-1,-11,-11,5,6,-11,26,69,66,48,22,-19
0,-11,-11,5,6,-11,26,70,67,49,22,-19
0,-10,-11,4,7,-11,26,71,68,50,23,-19
0,-11,-11,4,7,-11,26,72,69,51,24,-19
0,-11,-11,5,7,-11,27,72,70,52,25,-19
0,-11,-12,5,7,-11,27,73,71,53,26,-19
0,-11,-12,5,7,-11,27,74,72,54,27,-18
1,-11,-13,5,7,-11,27,74,73,55,27,-18
1,-11,-13,5,7,-12,27,75,74,56,28,-18
1,-11,-14,5,8,-12,27,75,74,56,28,-17
1,-11,-14,5,8,-12,27,76,75,57,29,-17
1,-12,-14,5,9,-13,27,77,76,58,30,-17
2,-12,-14,5,9,-13,27,78,76,59,31,-17
2,-12,-15,5,9,-13,27,78,77,60,32,-16
3,-12,-15,5,10,-13,27,78,77,60,33,-16
3,-12,-16,4,10,-13,27,79,78,61,34,-15
4,-12,-16,4,10,-13,27,79,78,61,34,-14
4,-12,-16,4,11,-13,27,79,78,61,35,-14
4,-12,-16,4,11,-13,26,78,78,61,35,-13
4,-12,-16,4,11,-13,26,78,78,61,36,-13
4,-11,-17,3,12,-13,25,77,78,62,36,-12
5,-11,-17,3,12,-13,25,76,77,62,37,-11
5,-11,-17,2,12,-13,24,75,76,62,38,-11
6,-11,-17,2,12,-13,24,74,75,62,38,-10
6,-10,-17,2,12,-13,23,73,74,61,39,-10
6,-10,-17,1,12,-13,22,71,73,61,39,-9
6,-10,-17,1,12,-13,21,70,71,60,39,-8
6,-10,-17,1,12,-13,20,68,70,60,40,-7
7,-10,-17,1,12,-13,20,67,69,59,40,-6
7,-10,-17,1,12,-13,19,65,67,58,41,-5
7,-9,-17,0,12,-12,18,63,65,57,41,-4
7,-9,-17,0,12,-12,17,61,63,56,41,-4
7,-8,-16,0,12,-11,16,59,60,54,41,-3
7,-8,-16,0,13,-11,16,57,58,53,41,-3
7,-7,-15,0,13,-11,15,54,56,51,41,-2
7,-6,-15,0,13,-10,14,52,53,49,40,-1
7,-6,-14,-1,12,-10,14,49,51,47,39,-1
7,-5,-14,-1,12,-9,13,47,48,44,38,0
7,-5,-13,-2,11,-9,12,45,45,42,37,0
7,-4,-12,-2,11,-8,11,42,42,40,37,1
6,-4,-12,-2,10,-8,10,39,40,38,36,1
6,-4,-11,-2,10,-7,9,37,37,36,35,1
6,-3,-10,-3,9,-6,9,35,35,34,34,1
6,-2,-9,-3,9,-5,8,33,32,32,32,1
6,-2,-8,-3,8,-4,7,31,30,29,31,1
6,-1,-8,-3,8,-4,6,29,27,27,30,1
6,-1,-7,-3,7,-3,6,26,25,24,28,1
5,0,-7,-3,7,-3,5,24,23,22,27,1
5,0,-6,-3,7,-2,5,22,20,20,25,1
5,0,-6,-3,6,-2,4,20,18,18,23,1
4,0,-5,-2,6,-2,4,19,16,16,21,0
4,0,-5,-2,5,-2,3,17,14,14,20,0
4,0,-5,-2,5,-2,3,16,13,12,18,-1
3,0,-5,-2,5,-2,3,15,11,10,17,-1
3,0,-4,-1,5,-2,3,14,10,8,15,-2
3,0,-4,-1,5,-2,3,14,9,6,14,-2
3,0,-3,-1,4,-1,3,13,8,5,13,-3
3,0,-3,-1,4,-1,3,12,7,4,12,-3
2,0,-3,-1,4,-1,3,11,6,3,11,-4
2,-1,-3,-1,4,-1,3,11,5,2,10,-5
1,-1,-3,0,4,-1,3,10,5,1,9,-6
1,-1,-3,0,4,-1,3,10,4,0,8,-6
1,-1,-3,0,4,-2,3,10,4,-1,7,-7
0,-2,-3,0,4,-2,3,9,3,-2,6,-7
0,-2,-3,1,3,-3,3,9,3,-2,5,-8
0,-2,-3,1,3,-3,3,8,2,-3,4,-8
0,-3,-4,1,3,-3,3,8,2,-3,3,-9
0,-3,-4,1,3,-3,3,8,2,-3,3,-9
0,-3,-4,1,3,-3,3,8,2,-3,2,-10
0,-3,-4,1,3,-3,3,8,2,-3,2,-10
0,-3,-4,1,3,-3,3,8,2,-4,1,-11
0,-4,-4,2,3,-4,4,8,2,-4,1,-11
0,-4,-4,2,3,-4,4,8,2,-5,0,-11
0,-4,-4,2,3,-4,4,8,2,-5,0,-11
0,-4,-4,2,2,-4,4,7,2,-5,0,-11
0,-4,-4,2,2,-4,4,7,2,-5,0,-11
0,-4,-4,2,2,-4,5,7,2,-5,0,-11
0,-4,-4,2,2,-4,5,7,2,-5,0,-11
0,-4,-4,2,2,-4,5,7,2,-5,0,-11
0,-4,-4,2,2,-4,5,8,2,-4,0,-11
0,-4,-4,2,2,-4,5,8,2,-4,0,-12
0,-5,-4,3,2,-4,5,8,2,-4,0,-12
0,-5,-4,3,2,-5,4,8,2,-4,0,-12
0,-5,-5,3,2,-5,4,8,2,-4,0,-12
-1,-6,-5,3,2,-5,4,8,2,-4,0,-12
-1,-6,-5,3,2,-5,5,8,2,-4,0,-12
-1,-6,-5,3,2,-5,5,8,2,-4,0,-12
-1,-6,-5,3,2,-5,5,8,2,-4,0,-12
-1,-6,-5,3,2,-5,6,8,2,-4,0,-12
-1,-7,-4,3,2,-5,6,8,2,-4,0,-12
-1,-7,-4,3,2,-5,6,8,3,-4,0,-12
-1,-6,-4,3,2,-5,6,8,3,-4,0,-12
-1,-6,-4,3,2,-5,6,8,3,-3,0,-12
-1,-6,-4,3,2,-5,6,8,3,-3,0,-12
-1,-6,-4,3,2,-5,6,8,4,-3,0,-12
-1,-6,-4,3,2,-5,6,8,4,-3,0,-12
-1,-6,-4,3,2,-5,6,8,4,-3,0,-12
-2,-6,-4,3,2,-5,5,8,4,-3,0,-12
-2,-7,-4,4,2,-5,5,8,4,-3,0,-12
-2,-7,-4,4,1,-5,5,8,4,-3,0,-12
-2,-7,-4,4,1,-5,5,9,4,-3,0,-12
-2,-7,-4,4,1,-5,5,9,4,-2,1,-12
-1,-7,-4,3,1,-5,5,9,4,-2,1,-12
-1,-7,-4,3,1,-5,5,9,4,-2,1,-12
-1,-7,-5,3,1,-5,5,9,4,-2,1,-12
-1,-7,-5,3,1,-5,5,9,5,-2,1,-11
-2,-7,-5,3,1,-5,6,9,5,-2,1,-11
-2,-7,-4,3,1,-5,6,9,5,-2,1,-11
-2,-7,-4,4,1,-5,6,9,5,-2,1,-11
-2,-7,-4,4,1,-6,6,9,5,-2,1,-11
-3,-7,-4,5,1,-6,6,9,5,-2,1,-11
-3,-6,-4,5,1,-5,6,9,6,-1,1,-11
-2,-5,-4,4,1,-5,6,9,6,-1,1,-11
-2,-4,-4,3,1,-4,6,9,6,0,2,-10
-1,-4,-3,3,1,-4,6,9,7,0,2,-10
-1,-4,-3,2,1,-4,6,9,7,0,2,-9
-1,-4,-3,2,1,-4,6,10,8,0,3,-9
-1,-3,-3,1,2,-3,6,10,8,0,3,-8
0,-3,-2,1,2,-3,6,11,8,1,3,-8
-1,-2,-2,1,1,-2,6,11,9,1,3,-8
-1,-2,-1,1,1,-2,7,11,9,1,4,-8
-1,-2,-1,1,1,-2,7,11,9,1,4,-8
0,-2,-1,1,1,-2,7,11,9,1,4,-7
0,-2,-1,1,1,-1,6,11,10,2,4,-7
0,-1,-1,0,1,-1,6,11,10,2,4,-7
0,0,0,0,1,-1,5,10,10,2,4,-7
0,0,0,0,0,0,4,10,10,2,4,-6
0,0,0,0,0,0,3,10,10,2,4,-6
0,0,1,0,0,0,3,9,10,2,5,-6
0,0,1,0,0,0,2,9,10,2,5,-6
0,1,1,0,0,0,1,9,10,3,5,-6
0,1,1,0,0,0,1,9,10,3,5,-5
0,1,1,-1,0,1,0,9,10,3,5,-5
1,2,1,-1,0,1,0,9,9,3,5,-4
1,2,1,-1,1,1,0,9,9,3,5,-4
1,2,0,-1,1,1,0,8,8,3,5,-4
1,2,0,-1,1,1,-1,8,8,2,5,-4
1,2,0,-1,1,1,-1,7,7,2,5,-4
1,2,0,-1,1,1,-1,7,7,1,5,-4
1,2,0,-1,1,1,-2,6,6,1,4,-5
1,2,0,-1,1,1,-2,5,6,0,4,-5
2,2,0,-2,1,1,-2,5,5,0,4,-5
2,2,0,-2,1,1,-2,5,5,0,4,-4
3,3,0,-2,2,1,-2,5,5,0,4,-4
3,3,0,-3,2,1,-2,5,5,0,4,-4
3,3,0,-3,3,1,-1,5,5,0,4,-4
4,3,-1,-3,4,1,-1,5,5,0,4,-4
5,3,-2,-4,5,0,0,6,6,0,4,-3
6,3,-3,-4,6,0,0,6,6,0,4,-3
7,2,-4,-4,7,-1,0,7,6,0,4,-3
7,1,-6,-4,7,-2,0,6,5,0,4,-3
7,0,-7,-4,8,-3,0,6,5,0,4,-3
7,0,-7,-4,8,-3,0,6,5,0,4,-3
7,0,-8,-4,9,-4,0,6,5,0,3,-3
7,0,-8,-4,9,-4,0,6,5,0,3,-3
7,0,-8,-4,9,-4,1,6,6,0,3,-3
6,0,-8,-3,8,-4,1,6,6,0,3,-3
5,-1,-7,-2,7,-4,2,6,6,0,3,-3
4,-1,-6,-2,6,-4,3,7,6,0,3,-3
3,-2,-6,-1,5,-4,4,7,6,0,2,-3
2,-2,-5,0,4,-4,5,8,6,0,2,-4
1,-3,-5,0,4,-4,6,8,6,0,1,-5
0,-4,-4,1,3,-4,6,8,6,0,0,-5
0,-5,-4,2,3,-4,7,8,6,-1,0,-6
-1,-6,-4,3,3,-5,7,9,6,-1,0,-6
-1,-6,-5,3,3,-5,7,9,5,-2,-1,-7
-1,-7,-5,3,3,-6,7,9,5,-2,-1,-7
-1,-7,-6,4,3,-6,7,9,5,-2,-1,-8
-1,-7,-6,4,3,-7,7,9,5,-2,-1,-8
-1,-7,-6,4,3,-7,7,9,5,-2,-1,-8
-1,-7,-6,4,3,-6,7,9,5,-2,-1,-8
-1,-7,-6,4,3,-6,7,9,5,-2,-1,-8
-1,-7,-6,4,3,-6,7,9,5,-2,-1,-8
-1,-7,-6,4,3,-6,7,9,5,-2,-1,-8
-1,-7,-6,4,3,-6,7,9,5,-2,-1,-8
-1,-6,-6,4,3,-6,7,9,5,-2,-1,-8
0,-6,-6,3,3,-6,7,9,5,-2,-1,-8
0,-6,-6,3,3,-6,7,9,5,-2,-1,-8
-1,-6,-6,3,3,-6,7,9,5,-2,-1,-8
-1,-7,-6,3,3,-6,7,9,5,-2,-1,-8
-1,-7,-6,3,3,-6,7,9,5,-2,-1,-8
-1,-7,-6,3,4,-6,7,9,5,-2,-1,-8
0,-7,-6,3,4,-6,7,9,5,-2,-1,-8
0,-7,-6,3,4,-6,8,9,5,-2,-1,-8
0,-7,-6,3,4,-6,8,9,5,-2,-1,-8
0,-7,-6,3,4,-6,8,9,5,-2,-1,-8
0,-6,-6,2,4,-6,8,9,6,-2,-1,-8
1,-6,-6,2,4,-6,8,9,6,-2,-1,-8
1,-6,-6,2,4,-6,8,9,6,-2,-1,-8
1,-6,-6,2,4,-6,8,9,7,-1,-1,-8
1,-6,-6,2,4,-6,8,11,9,0,0,-7
1,-6,-7,2,5,-6,9,16,12,1,1,-7
2,-6,-7,1,5,-6,9,21,17,4,2,-6
3,-5,-8,0,6,-6,10,26,22,7,4,-5
4,-4,-8,0,7,-6,10,29,25,10,6,-4
6,-3,-9,-1,8,-6,10,29,26,12,8,-2
7,-2,-9,-2,8,-6,9,25,24,14,10,-1
6,-1,-7,-3,7,-5,8,17,19,14,11,0
4,0,-4,-3,5,-2,7,1,6,11,11,0
1,2,1,-3,1,2,6,-18,-12,5,10,1
-1,4,6,-2,-3,6,6,-38,-32,-3,8,1
-3,6,11,-2,-7,9,5,-57,-52,-12,6,2
-6,8,16,-2,-10,12,3,-76,-71,-22,4,3
-8,11,21,-3,-14,16,-1,-97,-92,-33,3,4
-10,15,26,-4,-17,20,-8,-119,-113,-45,1,6
-10,19,29,-5,-18,23,-17,-141,-133,-57,0,9
-9,21,30,-7,-19,25,-27,-161,-151,-67,1,14
-8,24,31,-9,-19,27,-38,-180,-168,-76,2,20
-6,26,32,-11,-18,29,-49,-195,-183,-85,3,25
-4,28,33,-13,-18,31,-57,-206,-195,-95,4,30
-2,31,34,-16,-17,33,-64,-213,-204,-104,4,35
0,34,35,-18,-17,35,-69,-218,-211,-112,4,39
1,36,36,-19,-17,36,-75,-223,-218,-121,3,43
1,37,36,-20,-16,36,-79,-227,-223,-130,1,46
2,37,35,-20,-16,36,-82,-230,-228,-138,-1,48
2,36,35,-20,-16,36,-84,-232,-231,-145,-6,49
1,36,35,-20,-16,36,-86,-234,-234,-152,-11,49
0,36,37,-19,-18,36,-88,-236,-237,-159,-17,49
-2,37,40,-19,-20,38,-90,-238,-240,-167,-24,48
-3,38,43,-19,-22,40,-92,-239,-243,-174,-32,46
-5,40,46,-19,-25,43,-92,-239,-244,-181,-39,44
-6,43,50,-19,-28,46,-93,-237,-244,-186,-46,43
-7,46,54,-19,-29,49,-93,-233,-242,-189,-53,41
-8,47,56,-20,-31,51,-93,-228,-238,-191,-60,39
-8,49,58,-20,-32,53,-92,-220,-232,-190,-65,38
-9,49,59,-21,-33,54,-90,-211,-223,-186,-67,37
-9,49,59,-21,-33,54,-87,-199,-212,-180,-68,37
-9,48,58,-20,-33,52,-82,-186,-199,-172,-67,38
-10,45,56,-19,-32,50,-77,-172,-185,-162,-64,39
-10,42,52,-17,-30,47,-71,-158,-171,-153,-61,40
-9,38,47,-15,-27,42,-66,-145,-157,-143,-56,42
-8,33,41,-14,-23,36,-62,-133,-145,-134,-52,44
-6,28,34,-12,-18,30,-57,-122,-134,-125,-48,47
-4,22,26,-9,-14,23,-52,-110,-122,-116,-43,49
-2,15,17,-7,-9,16,-47,-98,-110,-107,-38,52
0,8,8,-5,-3,8,-41,-86,-99,-98,-33,54
1,0,-1,-2,2,0,-35,-75,-87,-89,-28,56
2,-7,-11,1,8,-9,-29,-64,-76,-81,-23,57
4,-15,-21,4,14,-18,-23,-54,-67,-73,-18,58
6,-22,-29,7,19,-26,-19,-46,-58,-66,-14,58
7,-28,-35,9,23,-31,-16,-38,-51,-60,-11,57
7,-31,-39,10,25,-35,-13,-31,-44,-54,-8,56
8,-34,-41,11,26,-37,-11,-24,-37,-47,-6,54
7,-35,-41,12,26,-38,-8,-18,-30,-40,-3,51
6,-35,-40,13,24,-38,-5,-13,-23,-34,-2,45
5,-34,-38,13,22,-36,-2,-8,-17,-29,-1,39
5,-30,-34,12,21,-33,1,-3,-11,-23,0,33
4,-25,-30,10,19,-28,3,2,-5,-16,1,28
4,-20,-24,8,16,-23,5,6,1,-10,3,23
3,-16,-20,6,13,-18,6,10,6,-5,3,19
2,-14,-16,5,11,-15,6,13,10,-1,3,14
1,-12,-13,5,9,-13,7,16,13,2,3,9
0,-11,-12,4,7,-12,9,19,16,4,2,4
0,-11,-11,4,6,-12,10,21,19,6,2,0
0,-11,-10,5,5,-11,12,23,21,8,1,-3
-1,-11,-10,5,5,-10,13,24,22,9,1,-5
-1,-11,-9,5,5,-10,13,24,23,9,1,-7
-2,-11,-9,5,5,-9,13,25,23,10,0,-7
-2,-11,-9,5,5,-9,13,25,23,10,0,-8
-2,-11,-9,5,5,-9,13,26,24,10,0,-8
-2,-10,-8,5,4,-9,14,26,24,11,0,-9
-2,-10,-8,5,4,-9,14,27,25,11,0,-9
-3,-10,-8,5,4,-9,14,27,25,11,0,-10
-3,-10,-7,5,4,-9,14,27,25,11,0,-11
-3,-10,-7,5,4,-9,14,27,25,11,0,-11
-3,-10,-7,6,3,-9,14,27,25,11,0,-11
-3,-10,-7,6,3,-9,14,27,25,11,0,-11
-3,-10,-7,6,3,-9,14,27,25,11,0,-11
-3,-10,-8,6,3,-9,14,27,26,11,0,-11
-3,-10,-8,6,3,-9,14,27,26,12,0,-11
-3,-10,-8,6,3,-9,14,27,26,12,0,-11
-3,-10,-8,6,3,-9,14,28,26,12,0,-11
-2,-10,-8,6,3,-9,14,28,26,12,0,-11
-2,-10,-8,6,3,-9,14,28,26,12,0,-11
-3,-10,-8,6,3,-9,14,28,26,12,0,-11
-3,-10,-8,6,3,-9,14,28,27,13,0,-11
-3,-10,-8,6,3,-9,14,28,27,13,0,-11
-3,-10,-8,6,3,-9,14,29,27,13,0,-11
-3,-10,-7,6,3,-9,14,29,28,13,0,-11
-3,-10,-7,6,3,-9,14,29,28,14,1,-11
-3,-10,-7,6,3,-9,14,29,28,14,1,-11
-3,-10,-7,6,3,-9,14,29,28,14,1,-11
-3,-10,-7,6,3,-9,14,29,28,14,1,-11
-3,-10,-7,6,3,-9,14,29,28,14,1,-11
-2,-10,-7,6,3,-9,14,30,28,14,1,-11
-2,-10,-7,6,3,-9,14,30,28,14,1,-11
-2,-10,-7,6,3,-9,14,30,29,15,1,-11
-2,-10,-7,6,3,-9,15,30,29,15,1,-11
-2,-10,-7,6,3,-9,15,31,30,16,1,-11
-2,-10,-7,6,3,-9,15,31,30,16,1,-11
-3,-11,-8,6,3,-10,15,31,31,16,1,-11
-3,-12,-8,7,3,-10,15,32,31,16,2,-11
-3,-12,-8,7,3,-10,15,32,31,17,2,-11
-3,-12,-8,7,3,-10,15,33,31,17,2,-11
-3,-12,-8,7,3,-10,15,33,32,17,2,-11
-3,-12,-8,7,3,-10,15,34,32,18,3,-11
-3,-12,-8,7,3,-10,15,34,33,18,3,-11
-3,-12,-8,7,3,-10,15,34,34,19,3,-11
-3,-12,-8,7,3,-10,15,35,34,19,3,-11
-3,-12,-9,7,3,-10,16,35,35,19,3,-11
-3,-12,-9,7,3,-10,16,36,35,20,3,-11
-3,-12,-9,7,3,-10,16,36,36,20,3,-11
-3,-12,-9,7,3,-10,16,37,36,21,3,-11
-3,-12,-9,7,3,-10,16,37,37,21,3,-11
-3,-12,-9,7,3,-10,17,38,38,22,4,-11
